E(MeV)	mcnp/Bi209:1
1E-11	39.74735945
1.15436E-11	37.13483896
1.30872E-11	35.00730326
1.61743E-11	31.72470172
1.92615E-11	29.28572758
2.23486E-11	27.38589759
2.54358E-11	25.85497717
2.85229E-11	24.58934647
3.46973E-11	22.60706922
4.08716E-11	21.11499324
4.70459E-11	19.94427016
5.32202E-11	18.99725674
5.93945E-11	18.21310209
7.17431E-11	16.98535522
8.40918E-11	16.06422608
9.64404E-11	15.34524692
1.08789E-10	14.76728727
1.33486E-10	13.89385872
1.58184E-10	13.26403833
1.82881E-10	12.78796166
2.07578E-10	12.41539106
2.56973E-10	11.8700079
3.06367E-10	11.49029243
3.55762E-10	11.21093545
4.05156E-10	10.99690152
5.03945E-10	10.69062634
6.02734E-10	10.48197017
7.01523E-10	10.33055726
8.00313E-10	10.21555707
9.22403E-10	10.10657091
9.22404E-10	10.10656974
9.97891E-10	10.05215112
1.19547E-09	9.941331725
1.39305E-09	9.861025459
1.59063E-09	9.800028318
1.98578E-09	9.713254857
2.38094E-09	9.654274105
2.77609E-09	9.611430454
3.17125E-09	9.578809863
3.96156E-09	9.532233581
4.75188E-09	9.500420323
5.54219E-09	9.477223271
6.3325E-09	9.459505082
7.91313E-09	9.434069284
9.49375E-09	9.41656401
1.10744E-08	9.40373696
1.2655E-08	9.393910914
1.58163E-08	9.379702488
1.89775E-08	9.369830176
2.21388E-08	9.362550782
2.53E-08	9.356956941
3.13855E-08	9.349054023
3.7471E-08	9.343447093
4.35565E-08	9.339251297
4.9642E-08	9.33599566
6.18129E-08	9.331180339
7.39839E-08	9.327749084
8.61549E-08	9.325170738
9.83259E-08	9.323161441
1.22668E-07	9.320173962
1.4701E-07	9.318029761
1.71352E-07	9.316406525
1.95694E-07	9.315124472
2.20036E-07	9.314084681
2.6872E-07	9.312472287
3.17403E-07	9.311263238
3.66087E-07	9.310315231
4.14771E-07	9.309547362
5.12139E-07	9.308355548
6.09507E-07	9.307455209
7.06875E-07	9.306740001
8.04243E-07	9.3061508
9.98978E-07	9.305212511
1.19371E-06	9.304476281
1.38845E-06	9.303867238
1.58319E-06	9.303344197
1.97266E-06	9.302462391
2.36213E-06	9.301718541
2.7516E-06	9.301061116
3.14107E-06	9.300461911
3.92001E-06	9.299374925
4.69896E-06	9.298381239
5.4779E-06	9.297445562
6.25684E-06	9.296548611
7.81473E-06	9.294828102
9.37261E-06	9.293167699
1.09305E-05	9.291543158
1.24884E-05	9.289941198
1.56042E-05	9.286775918
1.87199E-05	9.283636091
2.18357E-05	9.280504796
2.49515E-05	9.277372626
0.000031183	9.271085177
3.74145E-05	9.264747596
4.36461E-05	9.258346419
4.98776E-05	9.251873141
6.23407E-05	9.238689782
7.48038E-05	9.225164479
8.72669E-05	9.211271308
9.973E-05	9.196985936
0.000124656	9.167151152
0.000149582	9.135470473
0.000174508	9.101731081
0.000199435	9.06568672
0.000249287	8.985535653
0.000299139	8.892122701
0.000336528	8.811005653
0.000386381	8.683534897
0.000436233	8.526365952
0.000461159	8.432919557
0.000486085	8.326692633
0.000498549	8.267865969
0.000535938	8.062860735
0.000548401	7.982886951
0.000573327	7.800437798
0.00058579	7.695685412
0.000610716	7.451552863
0.000623179	7.308096588
0.000635642	7.146848964
0.000648106	6.96442582
0.000660569	6.756391802
0.0006668	6.641058364
0.000679263	6.383745047
0.000685495	6.239834864
0.000691726	6.084298362
0.000697958	5.915914399
0.000704189	5.733409166
0.000710421	5.535510307
0.000716652	5.321108258
0.000722884	5.089660497
0.000726	4.967618879
0.000729115	4.841446421
0.000735347	4.57896377
0.000738463	4.444403321
0.000741579	4.309616187
0.000744694	4.177073402
0.00074781	4.050464824
0.000750926	3.935309303
0.000754042	3.839880334
0.000757157	3.776729484
0.000760273	3.765128869
0.000763389	3.832982948
0.000764947	3.910362772
0.000766505	4.02938781
0.000768063	4.199562186
0.000769621	4.435093445
0.000771178	4.754688004
0.000772736	5.183258756
0.000774294	5.754372971
0.000775852	6.506601461
0.000776631	6.968768222
0.00077741	7.508650516
0.000778189	8.133368676
0.000778968	8.85743059
0.000779747	9.698259258
0.000780526	10.67747961
0.000781305	11.82103572
0.000782084	13.16150736
0.000782863	14.73864214
0.000783642	16.60305306
0.00078442	18.81769511
0.000785199	21.46408213
0.000785978	24.64590955
0.000786757	28.49966994
0.000787536	33.20531473
0.000788315	39.0008656
0.000789094	46.15823523
0.000789484	50.38796192
0.000789873	55.17098019
0.000790262	60.58468029
0.000790652	66.72593165
0.000791041	73.71498759
0.000791431	81.70170451
0.00079182	90.8666002
0.00079221	101.4389326
0.000792599	113.693855
0.000792989	127.9761354
0.000793378	144.7124807
0.000793768	164.4544172
0.000794157	187.8856645
0.000794547	215.8815186
0.000794936	249.5503135
0.000795326	290.3372491
0.000795715	340.0519595
0.000796105	400.9801208
0.000796494	475.8991572
0.000796884	568.0848179
0.000797273	680.8793063
0.000797663	817.1453808
0.000797955	935.460662
0.000798247	1066.344084
0.000799123	1481.728732
0.000799416	1597.181482
0.000799708	1682.022622
0.0008	1726.683295
0.000800292	1726.493101
0.000800584	1682.923913
0.000800877	1602.981564
0.000801169	1497.132863
0.000801753	1251.664527
0.000802045	1129.558786
0.000802338	1015.162613
0.000802703	886.4193418
0.000803069	774.8590809
0.000803435	679.7180104
0.000803801	599.2010328
0.000804167	531.2063752
0.000804533	473.7069486
0.000804899	424.9133245
0.000805265	383.3136365
0.00080563	347.6681298
0.000805996	316.937618
0.000806362	290.3035074
0.000806728	267.0924943
0.000807094	246.7579971
0.00080746	228.8615989
0.000807826	213.061951
0.000808192	199.0692186
0.000808923	175.3238809
0.000809655	155.9549296
0.000810387	140.0359858
0.000811119	126.7961642
0.000811851	115.6581677
0.000812582	106.1919623
0.000813314	98.07225553
0.000814046	91.04943808
0.000814778	84.93025835
0.00081551	79.56039946
0.000816241	74.82180734
0.000816973	70.65126359
0.000818437	63.55411148
0.0008199	57.75097739
0.000821364	52.96805483
0.000822827	48.96998286
0.000824291	45.58720128
0.000825755	42.69413914
0.000827218	40.19642426
0.000828682	38.02137424
0.000830145	36.11311153
0.000831609	34.42716901
0.000833072	32.9285781
0.000834536	31.59603397
0.000837463	29.31063576
0.00084039	27.42469745
0.000843317	25.85060945
0.000846244	24.5191761
0.000849172	23.37973674
0.000852099	22.39468741
0.000855026	21.53538514
0.000857953	20.77976221
0.00086088	20.11052095
0.000863807	19.51400447
0.000866734	18.97917487
0.000872589	18.06168225
0.000878443	17.3027444
0.000884297	16.6639546
0.000890152	16.12009588
0.000896006	15.65168236
0.000907714	14.88648218
0.000919423	14.28816166
0.000925277	14.03545688
0.000936986	13.60115062
0.00094284	13.4133951
0.000954549	13.08387887
0.000966257	12.8039796
0.000977966	12.56332836
0.001001383	12.17028626
0.0010248	11.86211094
0.001059926	11.50551576
0.00110676	11.15552847
0.001130177	11.01593377
0.001177011	10.78411087
0.001223845	10.59652023
0.001294096	10.3675656
0.001364348	10.17703918
0.00150485	9.849430086
0.001598519	9.639947731
0.001739022	9.293293082
0.00183269	9.008185485
0.001902941	8.741413409
0.001949776	8.524905047
0.001973193	8.401067821
0.002020027	8.112870489
0.002066861	7.754092106
0.002101987	7.423948874
0.002125404	7.169833325
0.002137113	7.032601692
0.00216053	6.743031026
0.002172238	6.596691405
0.002183947	6.45810295
0.002201509	6.298285673
0.002207364	6.271972122
0.002219072	6.300362369
0.002224926	6.379280222
0.002230781	6.52685328
0.002236635	6.773735343
0.002242489	7.163095335
0.002248343	7.768741268
0.00225127	8.187588119
0.002254198	8.708909949
0.002257125	9.35885184
0.002260052	10.17239164
0.002262979	11.19584177
0.002265906	12.49165375
0.002268833	14.1453049
0.00227176	16.25765954
0.002273223	17.53305945
0.002274687	19.00835361
0.002276151	20.70322514
0.002277615	22.6570761
0.002279078	24.91682356
0.002280542	27.54513133
0.002282005	30.61203112
0.002283469	34.21334053
0.002284932	38.4588071
0.002286396	43.49882546
0.00228786	49.51402907
0.002289324	56.73810707
0.002290787	65.46390542
0.002292251	76.08693915
0.002293714	89.08428858
0.002295178	105.1001524
0.002296641	124.8976638
0.002298105	149.457019
0.002299569	179.8443581
0.002301033	217.0057246
0.002302153	250.5813051
0.002303274	289.0693931
0.002306637	418.5257444
0.002307758	457.541519
0.002308879	488.0049951
0.00231	505.9658694
0.00231112	509.3469223
0.002312241	498.4770769
0.002313362	475.8218897
0.002314483	445.0123368
0.002316725	373.9213892
0.002317846	339.0083374
0.002318967	306.4128838
0.002319971	279.7732725
0.002320976	255.686283
0.002321981	234.1049355
0.002322986	214.8628342
0.00232399	197.7659411
0.002324995	182.5564308
0.002326	169.0335673
0.002327005	156.9945961
0.002328009	146.2785553
0.002329014	136.7651844
0.002331024	120.4994315
0.002333034	107.182391
0.002335044	96.2468269
0.002337053	87.1738111
0.002339063	79.56110524
0.002341073	73.11574444
0.002343083	67.61024093
0.002345092	62.87123716
0.002347102	58.75716669
0.002351122	52.00214266
0.002353131	49.20805912
0.002357151	44.50018728
0.002359161	42.5178555
0.00236318	39.10012695
0.0023672	36.26383397
0.002371219	33.89072473
0.002375239	31.8802193
0.002379258	30.15964295
0.002387297	27.37699349
0.002391316	26.23949884
0.002399355	24.33927482
0.002403374	23.53919403
0.002415433	21.58410506
0.002431511	19.68876963
0.00243955	18.95089221
0.002455627	17.76281408
0.002479744	16.46906966
0.002503861	15.54375386
0.002527977	14.85127124
0.002576211	13.88327082
0.002624444	13.2402308
0.002672677	12.78160277
0.002704833	12.54228014
0.002801299	12.02009431
0.002897766	11.67259771
0.002994232	11.42203901
0.003090699	11.23068144
0.003219321	11.03346946
0.003267554	10.97145247
0.003283632	10.95194742
0.003299709	10.93302834
0.003315787	10.9148627
0.003323826	10.90635901
0.003327845	10.90250182
0.003331865	10.89931688
0.003335884	10.89772734
0.003337894	10.89853297
0.003339904	10.90234487
0.003341913	10.91353738
0.003342918	10.92722383
0.003343923	10.95899601
0.003344425	11.00157907
0.003344676	11.0481024
0.003344928	11.13670172
0.003345179	11.30740237
0.00334543	11.63098781
0.003345555	11.88159478
0.003345681	12.21715448
0.003345807	12.65607775
0.003345933	13.21999808
0.003346058	13.92450448
0.003346184	14.80106117
0.003346309	15.85203134
0.003346435	17.10438486
0.00334656	18.53941025
0.003346686	20.16975778
0.003346812	21.96076453
0.003347189	27.82368609
0.00334744	31.4770407
0.003347565	32.98737627
0.003347659	33.92535436
0.003347801	34.95557505
0.003347919	35.41467493
0.003348	35.50790021
0.003348098	35.37510702
0.003348242	34.7042334
0.003348394	33.4319444
0.003348529	31.89256604
0.003348732	29.05673333
0.003349138	22.73554832
0.003349273	20.76490689
0.003349408	18.9652775
0.003349543	17.37135923
0.003349679	15.99012978
0.003349814	14.84235906
0.003349949	13.90519087
0.003350084	13.15830405
0.00335022	12.57279678
0.003350355	12.13025481
0.00335049	11.79961556
0.003350761	11.38064885
0.003351031	11.16779459
0.003351302	11.06158936
0.003351843	10.97815486
0.003352384	10.94694061
0.003353466	10.91743507
0.003354548	10.90249253
0.003356712	10.88710119
0.003358875	10.87861554
0.003361039	10.87305797
0.003365367	10.86519436
0.003369694	10.85903675
0.003374022	10.85363349
0.003382677	10.84376738
0.003399987	10.82546247
0.003417297	10.80800369
0.003469227	10.75846435
0.003625018	10.62689974
0.003971219	10.38480159
0.00424818	10.20197556
0.00435204	10.12697698
0.00438666	10.10035473
0.00440397	10.08680117
0.00442128	10.07354206
0.004429935	10.06771026
0.004434262	10.06555568
0.00443859	10.06483399
0.004442917	10.06761094
0.004445081	10.07254535
0.004447245	10.08357156
0.004449409	10.11189284
0.004450491	10.14455036
0.004451573	10.22063923
0.004452114	10.32657575
0.004452384	10.43652117
0.004452655	10.62987442
0.004452925	10.96833154
0.004453196	11.55196978
0.004453466	12.51072608
0.004453601	13.18138989
0.004453737	14.01435685
0.004453872	15.01710036
0.004454007	16.21145769
0.004454142	17.60834802
0.004454278	19.22368418
0.004454548	23.0114801
0.004454683	25.14562785
0.004454954	29.68957242
0.004455292	35.15899722
0.004455461	37.46299685
0.004455562	38.61588083
0.004455697	39.83629153
0.004455799	40.48504229
0.004456	41.00892605
0.004456158	40.69311537
0.004456357	39.41757776
0.004456536	37.53218541
0.004456656	35.94955914
0.004456895	32.26882685
0.004457533	21.85978479
0.004457692	19.66631338
0.004457851	17.74347117
0.004458011	16.09537056
0.00445817	14.73703897
0.00445833	13.63140142
0.004458489	12.7632643
0.004458649	12.0878208
0.004458967	11.19979968
0.004459286	10.71779905
0.004459605	10.46690062
0.004459924	10.33598304
0.004460562	10.22046932
0.0044612	10.16977643
0.004462475	10.11912903
0.004465026	10.07692103
0.004466302	10.06653128
0.004468853	10.05337976
0.004471404	10.0450775
0.004476506	10.03440805
0.004481608	10.02680901
0.00448671	10.02051454
0.004496914	10.00938413
0.004517322	9.988644766
0.00453773	9.967915147
0.004578546	9.924271283
0.004680585	9.79292908
0.004803032	9.554315505
0.004894868	9.234720453
0.004956092	8.843192623
0.004996908	8.382162595
0.005012214	8.12495367
0.00502752	7.788715215
0.005037724	7.500922301
0.005050479	7.036787504
0.005058132	6.679237342
0.005065785	6.241011408
0.005070887	5.893420094
0.00507854	5.277799298
0.005081091	5.050076008
0.005086193	4.588478655
0.005090019	4.302670134
0.00509257	4.223057946
0.005093846	4.253782587
0.005095121	4.361465414
0.005096397	4.582097678
0.005097034	4.75207396
0.005097672	4.975778803
0.00509831	5.265938492
0.005098948	5.638643524
0.005099585	6.113689122
0.005100223	6.719327509
0.005100861	7.489809414
0.005101499	8.471042134
0.005102136	9.722436599
0.005102774	11.33236339
0.005103093	12.30612961
0.005103412	13.41617628
0.005103731	14.68428176
0.00510405	16.13612692
0.005104368	17.79647908
0.005104687	19.71167704
0.005105006	21.91959541
0.005105325	24.47104191
0.005105644	27.42632377
0.005105963	30.85675057
0.005106282	34.84607992
0.005106601	39.4916329
0.005106919	44.88641801
0.005107238	51.18838247
0.005107557	58.51610439
0.005107876	67.00746844
0.005108195	76.79319771
0.005108514	87.98073146
0.005108833	100.6324039
0.005109152	114.7387906
0.005109508	132.0595533
0.00511022	170.1224327
0.005110932	207.8911592
0.005111288	224.2225696
0.005111644	237.4847948
0.005112	246.8432761
0.005112356	251.7668761
0.005112712	252.1036009
0.005113068	248.091038
0.005113424	240.300686
0.005114136	216.689538
0.005114848	188.206835
0.005115419	165.6461456
0.005115705	155.0680621
0.005116277	135.8964675
0.005116849	119.5528878
0.005117135	112.4019143
0.005117706	99.95166316
0.005118278	89.58939634
0.00511885	80.95713489
0.005119422	73.72600244
0.005119993	67.63687236
0.005120565	62.45303755
0.005121137	58.01451076
0.005121709	54.18542022
0.005122853	47.94786665
0.005123425	45.38650357
0.005124568	41.10747227
0.00512514	39.30468456
0.005126284	36.21741292
0.005127427	33.67293391
0.005128571	31.54428203
0.005130858	28.20987925
0.005133146	25.72890065
0.005136576	23.02486629
0.005140007	21.0975389
0.005142295	20.09606573
0.005146869	18.53713382
0.005151444	17.39068286
0.005158305	16.1500043
0.005165167	15.26660234
0.005174316	14.42539357
0.005183465	13.81659522
0.005197189	13.16834095
0.005224636	12.37476723
0.005242934	12.03974796
0.005270381	11.68713486
0.005325275	11.25898469
0.005407616	10.91326606
0.005517404	10.66161919
0.005700385	10.43040796
0.006029749	10.20156709
0.006066345	10.18233923
0.006139537	10.14595559
0.006212729	10.111828
0.006231027	10.10360526
0.006249325	10.09558096
0.006258474	10.09178086
0.006263048	10.09006018
0.006267623	10.08868042
0.006272197	10.08815195
0.006274484	10.08878886
0.006276772	10.0911817
0.006279059	10.09822555
0.006280203	10.10754802
0.006280775	10.117527
0.006281347	10.14039464
0.006281918	10.20539405
0.006282204	10.27677169
0.00628249	10.39782433
0.006282776	10.59632972
0.006283062	10.90817284
0.006283348	11.37440767
0.006283634	12.03439361
0.00628392	12.91482644
0.006284206	14.01617169
0.006284492	15.30000679
0.006285064	18.03638857
0.006285421	19.45607354
0.006285707	20.19681981
0.00628585	20.39540321
0.006286	20.46860076
0.006286149	20.40139773
0.006286251	20.2762635
0.006286541	19.5957447
0.006286773	18.76125784
0.006287236	16.64588586
0.006287468	15.52381967
0.006287932	13.49277888
0.006288163	12.66882543
0.006288395	11.98862006
0.006288627	11.45240446
0.006288859	11.04575645
0.006289323	10.53783886
0.006289787	10.29655411
0.00629025	10.19198895
0.006290714	10.1477144
0.006291178	10.12766873
0.006291642	10.11696868
0.006293497	10.09818624
0.006295352	10.08990775
0.006297207	10.08522752
0.006300917	10.07975974
0.006304626	10.07625919
0.006308336	10.0736317
0.006315756	10.06940233
0.006330595	10.06231343
0.006345435	10.05583417
0.006375114	10.04355429
0.006404793	10.03190489
0.006434472	10.02121914
0.006464151	10.01346832
0.00647157	10.0128808
0.00648641	10.01701493
0.006497539	10.03466353
0.006501249	10.04922714
0.006506814	10.09326328
0.006510524	10.16258892
0.006514234	10.33361139
0.006517016	10.71620725
0.006518407	11.23300774
0.006518871	11.55583226
0.006519335	12.04789099
0.006519799	12.84412218
0.00652003	13.42286455
0.006520262	14.17944827
0.006520494	15.16316379
0.006520726	16.43347176
0.006520958	18.05461469
0.00652119	20.0898431
0.006521422	22.59284058
0.006521538	24.0312284
0.006521769	27.27290889
0.006522117	33.04361307
0.006522813	46.37792547
0.006523103	51.60928288
0.006523451	56.6143791
0.006523631	58.40493562
0.006523877	59.77311638
0.006524	59.95424072
0.006524122	59.79486749
0.006524429	57.94271703
0.006524642	55.5508419
0.00652487	52.17806799
0.006525249	45.34432744
0.006525705	36.50686519
0.006526008	31.03929863
0.00652616	28.54754759
0.006526464	24.17885813
0.006526616	22.31805493
0.00652692	19.22739563
0.006527071	17.98244407
0.006527223	16.90315393
0.006527527	15.19661725
0.006527831	13.97374827
0.006528135	13.10562914
0.006528438	12.48967371
0.006528742	12.04396149
0.006529046	11.71571789
0.006529957	11.12134534
0.006530565	10.89176171
0.00653178	10.60849038
0.00653421	10.33734297
0.00653664	10.21186177
0.0065415	10.10132796
0.00654636	10.05311655
0.00655851	10.00596562
0.00656337	9.996833382
0.00657309	9.98436669
0.00659253	9.969000705
0.006641129	9.945011128
0.006718888	9.914381592
0.006796647	9.885763771
0.007146564	9.762539257
0.008235192	9.358129267
0.008818386	9.089779203
0.008896145	9.049109592
0.008935025	9.028322792
0.008954465	9.018074745
0.008973905	9.008899451
0.008983625	9.006173333
0.008988485	9.006513066
0.008993345	9.010093537
0.008998205	9.021578336
0.009000635	9.035451284
0.009003065	9.063962442
0.009005495	9.135684274
0.00900671	9.228018385
0.009007317	9.326022141
0.009007925	9.525596239
0.009008532	9.968233182
0.009008836	10.36526678
0.00900914	10.94809185
0.009009443	11.77955384
0.009009747	12.93720159
0.009010051	14.48732872
0.009010355	16.48014731
0.009010658	18.92063843
0.009011114	23.34098337
0.00901157	28.25371231
0.009012101	33.58058983
0.009012443	36.1469915
0.009012633	37.12118228
0.009012838	37.74690198
0.009013	37.90829141
0.009013188	37.71929861
0.009013386	37.09294909
0.009013557	36.22151766
0.009013901	33.67612523
0.009015412	18.48609252
0.009015686	16.34651377
0.009015961	14.57095113
0.009016236	13.15555246
0.009016511	12.06389748
0.009016785	11.24901286
0.00901706	10.65172272
0.009017335	10.22480276
0.00901761	9.924239585
0.009018159	9.568081616
0.009018708	9.390137421
0.009019807	9.233245245
0.009022005	9.118898005
0.009024202	9.070318084
0.0090264	9.043343086
0.009028597	9.026603382
0.00903519	9.000929639
0.009039585	8.991589717
0.009048376	8.979443142
0.009065956	8.96370109
0.009083537	8.951338628
0.009101117	8.940021892
0.009118698	8.929456376
0.009127488	8.924990199
0.009136279	8.923064507
0.009140674	8.925905927
0.009142871	8.93085825
0.009145069	8.94268093
0.009147266	8.975621388
0.009148365	9.033648067
0.009148914	9.113789162
0.009149464	9.294092307
0.009150013	9.688185886
0.009150288	10.02210038
0.009150563	10.48551857
0.009150837	11.10664744
0.009151112	11.91768944
0.009151387	12.93582057
0.009151662	14.16509443
0.009151936	15.58275234
0.009152623	19.63488804
0.009153035	21.95632928
0.00915331	23.2270446
0.009153585	24.14853965
0.009153773	24.53405795
0.009154	24.70731909
0.009154224	24.55559678
0.009154376	24.27421651
0.00915468	23.31651301
0.009155221	20.63044776
0.009155762	17.40770002
0.009156032	15.85242538
0.009156303	14.42831564
0.009156573	13.19064636
0.009156843	12.15400222
0.009157113	11.3178889
0.009157384	10.66461481
0.009157654	10.17413683
