E(MeV)	mcnp/Co-59:1			
1E-11	1916.962805			
1.15436E-11	1784.263833			
1.30872E-11	1675.781934			
1.61743E-11	1507.474989			
1.92615E-11	1381.472538			
2.23486E-11	1282.584326			
2.54358E-11	1202.302626			
2.85229E-11	1135.439439			
3.46973E-11	1029.586422			
4.08716E-11	948.7446495			
4.70459E-11	884.4055472			
5.32202E-11	831.6175827			
5.93945E-11	787.2934904			
7.17431E-11	716.4989919			
8.40918E-11	661.9477947			
9.64404E-11	618.2528681			
1.08789E-10	582.235264			
1.33486E-10	525.8526196			
1.58184E-10	483.2730462			
1.82881E-10	449.6547169			
2.07578E-10	422.2412718			
2.56973E-10	379.8195407			
3.06367E-10	348.1432799			
3.55762E-10	323.3304599			
4.05156E-10	303.2153814			
5.03945E-10	272.2798003			
6.02734E-10	249.320686			
7.01523E-10	231.4146724			
8.00313E-10	216.9471875			
9.97891E-10	194.7775837			
1.19547E-09	178.3820626			
1.39305E-09	165.623932			
1.59063E-09	155.3302552			
1.98578E-09	139.5741886			
2.38094E-09	127.9322583			
2.77609E-09	118.880026			
3.17125E-09	111.5823458			
3.96156E-09	100.4247392			
4.75188E-09	92.18969314			
5.54219E-09	85.78965579			
6.3325E-09	80.63026123			
7.91313E-09	72.7396189			
9.49375E-09	66.91583461			
1.10744E-08	62.39354684			
1.2655E-08	58.75050498			
1.58163E-08	53.1732542			
1.89775E-08	49.04480827			
2.21388E-08	45.83635862			
2.53E-08	43.25702081			
2.924E-08	40.65924105			
3.31799E-08	38.54687507			
4.10598E-08	35.26122662			
4.89398E-08	32.78688863			
5.68197E-08	30.84910037			
6.46996E-08	29.28502897			
7.25795E-08	27.99464349			
8.83394E-08	25.94285665			
1.04099E-07	24.36241451			
1.19859E-07	23.10745323			
1.35619E-07	22.08141528			
1.51379E-07	21.23078964			
1.82898E-07	19.86364599			
2.14418E-07	18.80043343			
2.45938E-07	17.9509414			
2.77458E-07	17.26011202			
3.40497E-07	16.17250306			
4.03536E-07	15.34418738			
4.66576E-07	14.69169669			
5.29615E-07	14.16528031			
6.55694E-07	13.34793182			
7.81773E-07	12.73399958			
9.07851E-07	12.25429753			
1.03393E-06	11.86865762			
1.28609E-06	11.27502142			
1.53825E-06	10.8332479			
1.7904E-06	10.48992894			
2.04256E-06	10.21467746			
2.54688E-06	9.793898029			
3.05119E-06	9.483553839			
3.55551E-06	9.244085286			
4.05982E-06	9.053304132			
5.06845E-06	8.765441929			
6.07708E-06	8.557626399			
7.08571E-06	8.401302826			
8.09434E-06	8.280651137			
1.01116E-05	8.109937732			
1.21289E-05	8.001909737			
1.41461E-05	7.936718205			
1.61634E-05	7.903772624			
2.01979E-05	7.911234394			
2.42324E-05	7.998785868			
2.82669E-05	8.158725629			
3.23015E-05	8.391646851			
3.93619E-05	8.989646983			
4.64223E-05	9.885612596			
4.84396E-05	10.2093986			
5.44913E-05	11.40573669			
5.65086E-05	11.89324994			
6.05431E-05	13.03649248			
6.45777E-05	14.44631041			
6.86122E-05	16.1967562			
7.26467E-05	18.38762513			
7.66812E-05	21.15201798			
7.86985E-05	22.80696297			
8.07157E-05	24.69071491			
8.2733E-05	26.83793652			
8.47503E-05	29.29620013			
8.67675E-05	32.12413703			
8.87848E-05	35.39463409			
9.0802E-05	39.1991552			
9.28193E-05	43.6536613			
9.48366E-05	48.90683885			
9.68538E-05	55.1517533			
9.88711E-05	62.64254113			
0.000100888	71.71874677			
0.000102906	82.84158798			
0.000104923	96.58981634			
0.000105932	104.7076878			
0.00010694	113.9068949			
0.000107949	124.3191024			
0.000108957	136.1621536			
0.000109966	149.7002448			
0.000110975	165.2652101			
0.000111983	183.2712414			
0.000112992	204.244482			
0.000114001	228.8509149			
0.000115009	257.9597965			
0.000116018	292.7085148			
0.000117026	334.6146988			
0.000118035	385.7156746			
0.000119044	448.8287768			
0.000120052	527.2074922			
0.000120557	573.7310313			
0.000121061	626.9412242			
0.000121565	687.5374133			
0.00012207	756.8591609			
0.000122574	836.5904547			
0.000123078	928.8230035			
0.000123582	1036.172455			
0.000124087	1161.932378			
0.000124591	1310.277663			
0.000125095	1486.568432			
0.0001256	1697.554177			
0.000126104	1952.021297			
0.000126608	2261.18789			
0.000127113	2639.383141			
0.000127617	3104.172532			
0.000128121	3676.657478			
0.000128626	4379.153422			
0.00012913	5228.89347			
0.000129489	5927.671222			
0.000131283	9774.123147			
0.000131641	10209.63016			
0.000132	10371.52078			
0.000132359	10237.53354			
0.000132718	9829.706481			
0.000133076	9206.955328			
0.000134511	6095.278625			
0.00013487	5404.468723			
0.000135175	4875.603943			
0.000135481	4401.734177			
0.000135786	3980.048963			
0.000136091	3606.093282			
0.000136397	3275.301954			
0.000136702	2982.634339			
0.000137007	2723.7178			
0.000137313	2494.293154			
0.000137618	2291.137207			
0.000137923	2111.158076			
0.000138534	1806.102056			
0.000139145	1558.836378			
0.000139755	1357.687795			
0.000140366	1192.452918			
0.000140977	1055.302326			
0.000141587	940.403643			
0.000142198	843.2986922			
0.000142809	760.5624639			
0.00014342	689.5374914			
0.00014403	628.1416047			
0.000144641	574.7278886			
0.000145252	527.9893303			
0.000145862	486.8529196			
0.000146473	450.4842164			
0.000147084	418.4517322			
0.000148305	363.9621679			
0.000149526	319.5309637			
0.000150748	283.0789272			
0.000151969	252.7938455			
0.00015319	227.3552386			
0.000154412	205.7758576			
0.000155633	187.3089363			
0.000156855	171.3762544			
0.000158076	157.5324438			
0.000159297	145.4221344			
0.000160519	134.7660207			
0.00016174	125.3910449			
0.000164183	109.5512366			
0.000166625	96.74178068			
0.000169068	86.26742626			
0.000171511	77.58509811			
0.000173954	70.30056085			
0.000176396	64.12392738			
0.000178839	58.8365973			
0.000181282	54.27191258			
0.000183725	50.30065251			
0.000186167	46.82189263			
0.00018861	43.7549906			
0.000191053	41.03574882			
0.000193496	38.61911274			
0.000198381	34.49992921			
0.000203267	31.13042589			
0.000208152	28.33905713			
0.000213038	25.99604229			
0.000217923	24.00656448			
0.000222808	22.29984737			
0.000227694	20.82235392			
0.000232579	19.53274131			
0.000237465	18.39883038			
0.00024235	17.39509247			
0.000247236	16.50117743			
0.000252121	15.70195786			
0.000261892	14.33070135			
0.000271663	13.19836991			
0.000281434	12.24989846			
0.000291205	11.44461938			
0.000300976	10.75281922			
0.000310747	10.15229814			
0.000320518	9.626192492			
0.000330289	9.161476633			
0.00034006	8.748372161			
0.000359602	8.044167488			
0.000369373	7.741561621			
0.000388914	7.214391979			
0.000408456	6.769353593			
0.000427998	6.388246179			
0.00044754	6.057664248			
0.000467082	5.767700142			
0.000486624	5.511028102			
0.000525708	5.075201073			
0.000564791	4.717336371			
0.000603875	4.416786081			
0.000662501	4.043728615			
0.000682043	3.935500796			
0.00076021	3.562338884			
0.000838378	3.260053241			
0.000916545	3.007342135			
0.001033796	2.69309465			
0.001229215	2.282905379			
0.001307382	2.146343928			
0.001346466	2.082996851			
0.001356237	2.067899453			
0.001361122	2.060632133			
0.001366008	2.053776803			
0.001370893	2.047830169			
0.001373336	2.045716621			
0.001375779	2.045013266			
0.001377	2.045772144			
0.001378221	2.048123454			
0.001379442	2.053524738			
0.001380053	2.058420254			
0.001380664	2.066215459			
0.001381274	2.079990126			
0.001381579	2.091526511			
0.001381885	2.109136485			
0.00138219	2.136968346			
0.001382496	2.182248659			
0.001382801	2.255328774			
0.001382954	2.306918028			
0.001383107	2.371260018			
0.001383259	2.449997765			
0.001383412	2.546312279			
0.001383564	2.660828977			
0.001383717	2.79648534			
0.001383869	2.952209102			
0.001384022	3.129773749			
0.001384175	3.326721584			
0.001384328	3.540138102			
0.001384939	4.447805402			
0.001385167	4.742047746			
0.001385397	4.970175333			
0.001385612	5.099766958			
0.0013858	5.136457214			
0.001386018	5.085700519			
0.001386212	4.96028491			
0.001386485	4.676008607			
0.001386593	4.536682221			
0.00138692	4.061795893			
0.001387137	3.733068895			
0.001387355	3.416763805			
0.001387572	3.131168476			
0.00138779	2.883067553			
0.001388007	2.678415192			
0.001388225	2.51440429			
0.001388442	2.38847287			
0.00138866	2.293653748			
0.001388877	2.22454643			
0.001389095	2.174556191			
0.001389312	2.139052501			
0.00138953	2.113609608			
0.001389965	2.08195962			
0.0013904	2.064122867			
0.001390835	2.052850721			
0.00139127	2.044961586			
0.00139214	2.034374449			
0.00139301	2.027442153			
0.00139475	2.018481727			
0.00139649	2.012502832			
0.00139997	2.003958471			
0.00140345	1.997161688			
0.00140693	1.991133682			
0.00141389	1.979979795			
0.00142781	1.95893603			
0.001441731	1.938610895			
0.001553093	1.787419756			
0.001831499	1.478854408			
0.001998542	1.336358633			
0.002165585	1.22676898			
0.002221266	1.198429034			
0.002235186	1.192245089			
0.002249107	1.186914552			
0.002256067	1.185107236			
0.002259547	1.184853524			
0.002263027	1.185744822			
0.002266507	1.189298244			
0.002268247	1.193755612			
0.002269987	1.203312392			
0.002270857	1.212872444			
0.002271727	1.231917787			
0.002272162	1.250354108			
0.002272597	1.282046982			
0.002273032	1.33822354			
0.002273249	1.380763465			
0.002273467	1.43708492			
0.002273684	1.510106411			
0.002273902	1.604251876			
0.002274119	1.722431986			
0.002274337	1.869218946			
0.002274554	2.045952169			
0.002274772	2.255641364			
0.002274989	2.495863328			
0.002275207	2.765939939			
0.002276077	3.976626736			
0.002276403	4.376608495			
0.002276566	4.540600831			
0.002276839	4.74261975			
0.002277011	4.815807509			
0.0022772	4.843667502			
0.00227742	4.805277672			
0.002277629	4.700501302			
0.002277879	4.496494999			
0.002278093	4.265397089			
0.002278449	3.802188679			
0.002278877	3.194101497			
0.002279162	2.804322044			
0.002279447	2.452055124			
0.002279732	2.149841621			
0.002280017	1.902381528			
0.002280302	1.708088711			
0.002280587	1.561159749			
0.002280872	1.453627367			
0.002281157	1.377037129			
0.002281442	1.323586278			
0.002281727	1.286731245			
0.002282012	1.261373284			
0.002282582	1.231301518			
0.002283152	1.215357373			
0.002284292	1.199098539			
0.002285432	1.190527705			
0.002286572	1.185181061			
0.002288852	1.178795201			
0.002291132	1.175021217			
0.002295693	1.170465972			
0.002300253	1.167447969			
0.002304813	1.165113455			
0.002313934	1.161274346			
0.002332175	1.154884196			
0.002350417	1.149431371			
0.002496347	1.127819834			
0.002569313	1.133120026			
0.002642278	1.151115167			
0.002715244	1.183679786			
0.002769967	1.219401669			
0.002788209	1.234015477			
0.002797329	1.242054508			
0.00280645	1.25077749			
0.002815571	1.260502122			
0.002824692	1.271936429			
0.002829252	1.278859812			
0.002833812	1.287388714			
0.002838372	1.298605488			
0.002840652	1.306038909			
0.002842933	1.315734525			
0.002845213	1.328978457			
0.002847493	1.348343812			
0.002848633	1.361731215			
0.002849773	1.379054534			
0.002850913	1.402514753			
0.002852054	1.435925083			
0.002853194	1.486400087			
0.002853764	1.52260839			
0.002854334	1.57138381			
0.002854904	1.641492623			
0.002855474	1.751652238			
0.002855759	1.833069292			
0.002856044	1.942454622			
0.002856329	2.091793379			
0.002856614	2.297565506			
0.002856899	2.581623331			
0.002857041	2.760765137			
0.002857184	2.971705498			
0.002857326	3.215826089			
0.002857469	3.501219906			
0.002857611	3.828709828			
0.002857754	4.207868224			
0.002857896	4.638272734			
0.002858039	5.13071511			
0.002858181	5.682609628			
0.002858324	6.305467367			
0.002858466	6.993448154			
0.002858609	7.758051885			
0.002858894	9.49704272			
0.002859036	10.46644274			
0.002859321	12.5942595			
0.002860247	20.23234623			
0.002860604	22.80656987			
0.002860924	24.56831951			
0.002861103	25.25754415			
0.002861418	25.87155744			
0.0028615	25.8991181			
0.002861784	25.56731958			
0.002861996	24.90276479			
0.002862236	23.76233083			
0.002862649	21.03055501			
0.002863749	12.0585701			
0.002864024	10.05884118			
0.002864299	8.300732159			
0.002864436	7.523067998			
0.002864574	6.806895497			
0.002864711	6.16179141			
0.002864849	5.576432486			
0.002864986	5.056537583			
0.002865124	4.591044797			
0.002865261	4.182779565			
0.002865399	3.821512956			
0.002865536	3.508101167			
0.002865674	3.233526956			
0.002865811	2.997460097			
0.002865949	2.792279795			
0.002866224	2.465610464			
0.002866498	2.226520921			
0.002866773	2.05066634			
0.002867048	1.921352826			
0.002867323	1.825264321			
0.002867598	1.75269867			
0.002867873	1.696764386			
0.002868423	1.617076462			
0.002868973	1.563126613			
0.002869523	1.52396511			
0.002870623	1.470685224			
0.002871722	1.436447208			
0.002872822	1.413052888			
0.002873922	1.396493997			
0.002875022	1.384457722			
0.002877222	1.368629618			
0.002879422	1.359220554			
0.002881621	1.353632069			
0.002883821	1.350504244			
0.00288822	1.348244074			
0.002892619	1.348927258			
0.002897019	1.351376983			
0.002905817	1.358935803			
0.002914616	1.368397446			
0.002923414	1.378995608			
0.002932213	1.390396348			
0.00294981	1.415012524			
0.003002602	1.500183775			
0.003072991	1.640064443			
0.00314338	1.814127274			
0.003213768	2.028776125			
0.003284157	2.292173714			
0.003354546	2.614705427			
0.003424935	3.009768628			
0.003495323	3.49495482			
0.003565712	4.093953579			
0.003636101	4.839034439			
0.003671295	5.280276499			
0.00370649	5.777953362			
0.003741684	6.341451595			
0.003776879	6.98330746			
0.003812073	7.71970323			
0.003847268	8.572217269			
0.003882462	9.570180428			
0.003917657	10.7535313			
0.003935254	11.43240953			
0.003952851	12.18387109			
0.003966048	12.80282221			
0.003970448	13.02200505			
0.003974847	13.25260979			
0.003977047	13.37484934			
0.003979247	13.50731456			
0.003980346	13.58410699			
0.003980896	13.63069088			
0.003981446	13.69039597			
0.003981996	13.77705557			
0.003982546	13.91720699			
0.003982821	14.02076836			
0.003983096	14.15675578			
0.003983371	14.33470309			
0.003983646	14.56553094			
0.003983921	14.86111002			
0.003984196	15.23351537			
0.003984471	15.69394892			
0.003984746	16.25135364			
0.003985021	16.91080655			
0.003985296	17.67184072			
0.003985571	18.52691165			
0.003985846	19.46025986			
0.003986671	22.44516804			
0.003987083	23.79555			
0.003987358	24.54278796			
0.003987667	25.17605366			
0.003987873	25.45502724			
0.003988084	25.61054609			
0.0039882	25.63787136			
0.003988439	25.5629782			
0.003988767	25.18189386			
0.003989112	24.46960929			
0.003989457	23.50355963			
0.003990008	21.64568839			
0.003990835	18.80756587			
0.003991111	17.98323679			
0.003991387	17.25376498			
0.003991663	16.6265396			
0.003991939	16.10183155			
0.003992215	15.67435988			
0.003992491	15.33499592			
0.003992767	15.0723874			
0.003993042	14.8749678			
0.003993318	14.72940138			
0.003993594	14.62556492			
0.00399387	14.55392256			
0.003994422	14.47699555			
0.003994974	14.45295524			
0.003995525	14.45549712			
0.003996077	14.47099422			
0.003997181	14.51819427			
0.003999387	14.63406905			
0.004001594	14.76104235			
0.004006008	15.03008002			
0.004010421	15.31390001			
0.004023662	16.22964222			
0.004041316	17.61170021			
0.00405897	19.21801972			
0.004076624	21.10927632			
0.004094278	23.36857675			
0.004111932	26.11278056			
0.004129587	29.5098491			
0.004147241	33.78971283			
0.004156068	36.36747219			
0.004164895	39.33285376			
0.004173722	42.75301576			
0.004182549	46.72690583			
0.004191376	51.38008891			
0.004200204	56.87356065			
0.004209031	63.41190669			
0.004217858	71.26083832			
0.004226685	80.76209867			
0.004235512	92.354235			
0.004244339	106.5926609			
0.004253166	124.1608402			
0.004261993	145.8514825			
0.004270821	172.411039			
0.004277355	195.5936222			
0.00428389	222.0313567			
0.004303495	312.0620357			
0.00431003	339.7263048			
0.004316565	361.5985072			
0.0043231	374.7996512			
0.004329634	377.7049382			
0.004336169	370.4464128			
0.004342704	354.788665			
0.004349239	333.3915016			
0.004368844	260.1771868			
0.004375379	238.0456121			
0.004384768	210.1562391			
0.004394158	186.9003394			
0.004403548	167.8755202			
0.004412938	152.4316704			
0.004422327	139.9297804			
0.004431717	129.8110158			
0.004441107	121.6199826			
0.004450497	114.9913668			
0.004459886	109.637038			
0.004469276	105.3593225			
0.004488056	99.22690542			
0.004506836	95.53901966			
0.004525616	93.68425262			
0.004544395	93.23845411			
0.004563175	93.93944672			
0.004600735	98.02230216			
0.004638294	105.0339418			
0.004675854	114.5821437			
0.004718372	128.1605227			
0.00476089	144.4008067			
0.004888445	201.9173841			
0.004930963	219.2843932			
0.004973481	232.3578031			
0.005016	239.2936329			
0.005058518	239.2112464			
0.005101036	232.4783981			
0.005143554	220.4950204			
0.005186073	205.1376279			
0.005271109	171.1292365			
0.005313627	154.8057309			
0.005356146	139.7449565			
0.005388413	129.2982162			
0.00542068	119.7265648			
0.005452947	111.0027878			
0.005485215	103.0887462			
0.00554975	89.41031955			
0.005614285	78.17676126			
0.005678819	68.92699118			
0.005743354	61.26249743			
0.005807889	54.86258369			
0.005872424	49.4738987			
0.005936958	44.89779628			
0.006001493	40.97801858			
0.006066028	37.59083467			
0.006130563	34.63579081			
0.006195097	32.02543131			
0.006227364	30.82208011			
0.006259632	29.66894434			
0.006291899	28.53997014			
0.006308033	27.9693234			
0.0063161	27.67711848			
0.006332233	27.06188473			
0.0063403	26.72792907			
0.006348367	26.36158437			
0.0063524	26.15977092			
0.00635845	25.82396112			
0.006362484	25.56781284			
0.006364501	25.42682031			
0.006368534	25.11232327			
0.006370551	24.9360201			
0.006372568	24.74642689			
0.006374584	24.54683645			
0.006375592	24.4467535			
0.006376601	24.35112817			
0.006377609	24.26812785			
0.006378618	24.21423953			
0.006379626	24.22680294			
0.00638013	24.28190988			
0.006380635	24.39364463			
0.006381139	24.59141333			
0.006381643	24.91983931			
0.006382147	25.44328032			
0.006382651	26.25129319			
0.006383155	27.46252861			
0.006383407	28.26455369			
0.006383659	29.22490347			
0.006383911	30.36558768			
0.006384163	31.70913229			
0.006384415	33.2778215			
0.006384668	35.10047278			
0.00638492	37.18153262			
0.006385172	39.54292755			
0.006385676	45.14162804			
0.00638618	51.89528071			
0.006386937	63.85359665			
0.006387819	79.01058954			
0.006388449	89.04427668			
0.006388826	94.12341549			
0.00638945	100.2291309			
0.006389824	102.228099			
0.006390074	102.8084935			
0.006390573	102.1463575			
0.0063912	98.13450947			
0.006391906	90.32143826			
0.006393115	73.2219611			
0.006393518	67.55240464			
0.006393719	64.85118908			
0.006394122	59.77433552			
0.006394324	57.42307323			
0.006394727	53.15102241			
0.00639513	49.44727014			
0.006395533	46.29299225			
0.006395936	43.64424025			
0.006396339	41.44266752			
0.006396742	39.62433848			
0.006397145	38.12621167			
0.006397548	36.89033957			
0.006397951	35.86611327			
0.006398354	35.01102424			
0.006398757	34.29042274			
0.006399563	33.14820985			
0.006400369	32.28357052			
0.006401175	31.6029742			
0.006401981	31.05006973			
0.006402787	30.58978309			
0.006404398	29.86322968			
0.006406816	29.08065252			
0.006408428	28.68693276			
0.006411652	28.08420056			
0.006413264	27.84569228			
0.006416488	27.45175387			
0.006419711	27.13587274			
0.006422935	26.87174903			
0.006429383	26.44226213			
0.006432606	26.26190497			
0.006442278	25.80595553			
0.006448725	25.54627859			
0.006455173	25.3116777			
0.006468068	24.88999115			
0.006493859	24.15989529			
0.006519649	23.51584746			
0.006545439	22.92403048			
0.00659702	21.84492799			
0.0066486	20.86703725			
0.006700181	19.96841051			
0.006803343	18.35697466			
0.006906504	16.94053879			
0.007009666	15.67405301			
0.007112827	14.52182084			
0.007215989	13.45270388			
0.00731915	12.43636884			
0.007422311	11.43878884			
0.007525472	10.41543648			
0.007577053	9.873868206			
0.007628634	9.295842318			
0.007680214	8.663505542			
0.007731795	7.949306211			
0.007757585	7.549048342			
0.007783376	7.110997464			
0.007809166	6.626754145			
0.007822061	6.363931265			
0.007847852	5.786873422			
0.007873642	5.130157543			
0.007886537	4.767221997			
0.007899432	4.379424557			
0.007912327	3.966891257			
0.007925222	3.532775192			
0.007938118	3.085380303			
0.007944565	2.862422294			
0.00795746	2.441942548			
0.007963908	2.261448817			
0.007970355	2.119443154			
