E(MeV)	pendfb7/Cs133:1
1.00000E-11	1471.53189
1.02999E-11	1449.96039
1.06087E-11	1428.71204
1.09269E-11	1407.76563
1.12544E-11	1387.13936
1.15920E-11	1366.80395
1.19395E-11	1346.77756
1.22976E-11	1327.03446
1.26662E-11	1307.59138
1.30462E-11	1288.42087
1.34372E-11	1269.54664
1.38403E-11	1250.93529
1.42552E-11	1232.61012
1.46827E-11	1214.5431
1.51229E-11	1196.74957
1.55765E-11	1179.2062
1.60434E-11	1161.93369
1.65246E-11	1144.90259
1.70199E-11	1128.13208
1.75304E-11	1111.59857
1.80559E-11	1095.31523
1.85975E-11	1079.26248
1.91550E-11	1063.4545
1.97295E-11	1047.87003
2.03209E-11	1032.52208
2.09305E-11	1017.38989
2.15579E-11	1002.49094
2.22045E-11	987.800358
2.28701E-11	973.334877
2.35561E-11	959.071935
2.42622E-11	945.02844
2.49899E-11	931.18206
2.57390E-11	917.54691
2.65110E-11	904.104471
2.73057E-11	890.866298
2.81247E-11	877.815836
2.89678E-11	864.963305
2.98367E-11	852.292338
3.07311E-11	839.815834
3.08613E-11	838.07722
3.16528E-11	827.515181
3.19212E-11	824.087105
3.26017E-11	815.401448
3.30174E-11	810.322291
3.35795E-11	803.458976
3.41512E-11	796.777505
3.45861E-11	791.698204
3.53241E-11	783.448066
3.56235E-11	780.103272
3.65371E-11	770.333362
3.66913E-11	768.685452
3.77919E-11	757.428184
3.89247E-11	746.344202
3.90897E-11	744.79894
4.00923E-11	735.415718
4.04321E-11	732.371701
4.12941E-11	724.654868
4.18206E-11	720.143048
4.25327E-11	714.044808
4.32568E-11	708.109398
4.38076E-11	703.597509
4.47423E-11	696.268941
4.51216E-11	693.296974
4.62788E-11	684.618259
4.64742E-11	683.153764
4.78681E-11	673.153649
4.93030E-11	663.306775
4.95120E-11	661.933986
5.07818E-11	653.599078
5.12123E-11	650.894269
5.23041E-11	644.039122
5.29710E-11	640.031032
5.38729E-11	634.614176
5.47901E-11	629.341384
5.54878E-11	625.333089
5.66717E-11	618.822941
5.71521E-11	616.182993
5.86179E-11	608.472862
5.88653E-11	607.172378
6.06310E-11	598.288676
6.24484E-11	589.541982
6.27131E-11	588.32264
6.43215E-11	580.918473
6.48668E-11	578.51564
6.62496E-11	572.426441
6.70944E-11	568.865828
6.82368E-11	564.054068
6.93985E-11	559.370475
7.02822E-11	555.810008
7.17818E-11	550.027041
7.23903E-11	547.681975
7.42469E-11	540.833505
7.45603E-11	539.678202
7.67967E-11	531.787141
7.90987E-11	524.017689
7.94340E-11	522.934518
8.14712E-11	516.35778
8.21619E-11	514.223461
8.39134E-11	508.814724
8.49834E-11	505.652144
8.64304E-11	501.378046
8.79019E-11	497.21779
8.90212E-11	494.055318
9.09206E-11	488.91874
9.16913E-11	486.835854
9.40430E-11	480.752633
9.44399E-11	479.726608
9.72725E-11	472.717869
1.00188E-10	465.816743
1.00613E-10	464.854107
1.03193E-10	459.014136
1.04068E-10	457.118275
1.06287E-10	452.313469
1.07642E-10	449.504931
1.09475E-10	445.70806
1.11339E-10	442.012206
1.12756E-10	439.204422
1.15162E-10	434.642555
1.16139E-10	432.791289
1.19117E-10	427.38987
1.19620E-10	426.478109
1.23208E-10	420.252828
1.26901E-10	414.124018
1.27439E-10	413.269481
1.30707E-10	408.082036
1.31815E-10	406.398839
1.34626E-10	402.131261
1.36342E-10	399.637191
1.38664E-10	396.26459
1.41620E-10	392.155685
1.42820E-10	390.488811
1.47104E-10	384.793596
1.51513E-10	379.186787
1.52798E-10	377.623109
1.56058E-10	373.658887
1.58715E-10	370.566161
1.60736E-10	368.215351
1.64858E-10	363.626493
1.65557E-10	362.848852
1.70520E-10	357.564408
1.71243E-10	356.8276
1.75635E-10	352.354829
1.77871E-10	350.17523
1.80899E-10	347.225626
1.84759E-10	343.627523
1.86325E-10	342.168755
1.91911E-10	337.188442
1.97667E-10	332.279667
1.99343E-10	330.911705
2.03592E-10	327.445993
2.07059E-10	324.739728
2.09699E-10	322.680368
2.15077E-10	318.665276
2.15985E-10	317.987826
2.22463E-10	313.361937
2.23402E-10	312.720233
2.29132E-10	308.807022
2.32053E-10	306.897661
2.36004E-10	304.316719
2.41036E-10	301.17098
2.43079E-10	299.894626
2.50370E-10	295.535106
2.57875E-10	291.243243
2.60061E-10	290.046817
2.65610E-10	287.011845
2.71272E-10	284.048226
2.73572E-10	282.845196
2.81777E-10	278.737616
2.82967E-10	278.167497
2.90224E-10	274.693196
2.95165E-10	272.429259
2.98929E-10	270.705808
3.07890E-10	266.779304
3.17125E-10	262.909032
3.21163E-10	261.289573
3.26631E-10	259.098101
3.35008E-10	255.884933
3.36428E-10	255.340624
3.46513E-10	251.641308
3.49450E-10	250.610212
3.56906E-10	247.994387
3.64515E-10	245.439811
3.67605E-10	244.403111
3.78631E-10	240.862793
3.81840E-10	239.876775
3.89981E-10	237.377122
3.99983E-10	234.437967
4.01678E-10	233.940225
4.13719E-10	230.556683
4.18994E-10	229.138058
4.26128E-10	227.220825
4.38901E-10	223.935802
4.52066E-10	220.698085
4.59763E-10	218.886483
4.65617E-10	217.509585
4.79583E-10	214.366162
4.81607E-10	213.930195
4.93959E-10	211.271471
5.06628E-10	208.661922
5.08775E-10	208.219995
5.24026E-10	205.21591
5.32948E-10	203.534172
5.39744E-10	202.254065
5.55923E-10	199.337667
5.60636E-10	198.524722
5.72598E-10	196.46283
5.89762E-10	193.631554
6.07452E-10	190.841133
6.20402E-10	188.886363
6.25661E-10	188.09307
6.44427E-10	185.384211
6.55399E-10	183.8686
6.63744E-10	182.716674
6.83653E-10	180.087017
6.92358E-10	178.98671
7.04146E-10	177.497737
7.25267E-10	174.944932
7.31415E-10	174.233837
7.47007E-10	172.431686
7.69413E-10	169.95366
7.75936E-10	169.263299
7.92477E-10	167.513924
8.16247E-10	165.108455
8.23167E-10	164.43833
8.40715E-10	162.740177
8.65932E-10	160.405115
8.73272E-10	159.754729
8.91889E-10	158.106253
9.18641E-10	155.839611
9.30338E-10	154.891269
9.46178E-10	153.607925
9.74558E-10	151.407767
9.91151E-10	150.176845
1.00377E-09	149.241302
1.03388E-09	147.105685
1.06040E-09	145.305976
1.06487E-09	145.002387
1.09681E-09	142.929438
1.12969E-09	140.88771
1.13448E-09	140.603194
1.16357E-09	138.875448
1.19845E-09	136.893666
1.21886E-09	135.78432
1.23440E-09	134.939941
1.27140E-09	133.016378
1.30954E-09	131.119479
1.34879E-09	129.252476
1.38925E-09	127.411385
1.41290E-09	126.381386
1.43089E-09	125.598511
1.47381E-09	123.811545
1.51799E-09	122.051488
1.52442E-09	121.806229
1.56352E-09	120.316864
1.61039E-09	118.60861
1.65169E-09	117.1682
1.65869E-09	116.924238
1.70841E-09	115.266232
1.75966E-09	113.63129
1.79717E-09	112.486096
1.81240E-09	112.02132
1.86677E-09	110.434517
1.92272E-09	108.871701
1.96375E-09	107.77544
1.98039E-09	107.330895
2.03976E-09	105.814136
2.10094E-09	104.318489
2.15482E-09	103.058148
2.16392E-09	102.845557
2.22882E-09	101.393994
2.29563E-09	99.9643952
2.36449E-09	98.5546914
2.37447E-09	98.3591961
2.43537E-09	97.1671145
2.50842E-09	95.7990224
2.58361E-09	94.4516053
2.62760E-09	93.6974221
2.66110E-09	93.1233446
2.74087E-09	91.8157136
2.82308E-09	90.5263067
2.90771E-09	89.2564178
2.92003E-09	89.079461
2.99492E-09	88.0049708
3.08470E-09	86.772592
3.17722E-09	85.5574127
3.27246E-09	84.3606316
3.37062E-09	83.1813596
3.47166E-09	82.0199645
3.57579E-09	80.8747819
3.68297E-09	79.74695
3.79344E-09	78.635628
3.90715E-09	77.5411563
4.02435E-09	76.4619843
4.14498E-09	75.3991652
4.18012E-09	75.1029878
4.26931E-09	74.3517124
4.39728E-09	73.3203539
4.52918E-09	72.3034258
4.66494E-09	71.3019228
4.78459E-09	70.4575426
4.80487E-09	70.3145194
4.94890E-09	69.3426726
5.09734E-09	68.3844354
5.25013E-09	67.4407489
5.40761E-09	66.5102697
5.52289E-09	65.8585821
5.56971E-09	65.5940965
5.73677E-09	64.6911964
5.90873E-09	63.8020274
6.08596E-09	62.925317
6.26840E-09	62.0619291
6.45641E-09	61.2106334
6.64995E-09	60.3728559
6.84941E-09	59.5468286
7.05473E-09	58.73337
7.26633E-09	57.9313166
7.48415E-09	57.1414572
7.64383E-09	56.5874642
7.70863E-09	56.3628186
7.93970E-09	55.5964073
8.17785E-09	54.8407546
8.42299E-09	54.0966003
8.67563E-09	53.3628909
8.93569E-09	52.6403427
9.20371E-09	51.9279324
9.47961E-09	51.2268495
9.76394E-09	50.535621
1.00566E-08	49.8549282
1.03583E-08	49.1838022
1.06688E-08	48.5229061
1.09888E-08	47.871296
1.12706E-08	47.3222802
1.13182E-08	47.2296761
1.16577E-08	46.5974481
1.20071E-08	45.9748676
1.23672E-08	45.3610442
1.27380E-08	44.756639
1.31200E-08	44.1606704
1.35133E-08	43.5737826
1.39186E-08	42.9951402
1.40959E-08	42.7530849
1.43359E-08	42.4255347
1.47659E-08	41.8641086
1.52085E-08	41.3112523
1.56647E-08	40.7661797
1.61342E-08	40.2294317
1.66182E-08	39.7002446
1.71163E-08	39.1791445
1.76297E-08	38.6653899
1.81582E-08	38.1594906
1.87028E-08	37.6610923
1.92635E-08	37.1703345
1.98412E-08	36.686518
2.04360E-08	36.2101222
2.10490E-08	35.740468
2.16799E-08	35.2780172
2.23302E-08	34.8221107
2.29996E-08	34.3731961
2.36894E-08	33.930632
2.43996E-08	33.4948531
2.52687E-08	32.9867123
2.53000E-08	32.9689353
2.60589E-08	32.5473943
2.68400E-08	32.1323359
2.76450E-08	31.7231725
2.84737E-08	31.3203106
2.93278E-08	30.9231771
3.02069E-08	30.5321619
3.11130E-08	30.1467025
3.20456E-08	29.7671709
3.30068E-08	29.3930181
3.39962E-08	29.024605
3.50159E-08	28.6614026
3.59140E-08	28.3554146
3.60655E-08	28.3038032
3.71473E-08	27.9514788
3.82608E-08	27.6045758
3.94084E-08	27.262606
4.05898E-08	26.9259119
4.18072E-08	26.594018
4.30604E-08	26.2672537
4.43520E-08	25.9451552
4.56815E-08	25.6280409
4.70517E-08	25.3154592
4.84621E-08	25.0077184
4.99157E-08	24.7043808
5.14120E-08	24.4057474
5.29541E-08	24.1113955
5.45414E-08	23.8216198
5.47726E-08	23.7812611
5.61773E-08	23.5361848
5.78613E-08	23.255241
5.95968E-08	22.9783618
6.13833E-08	22.7058152
6.32245E-08	22.4371989
6.51197E-08	22.1727601
6.70729E-08	21.9121058
6.90835E-08	21.6554861
7.11556E-08	21.4025383
7.32886E-08	21.1535216
7.54868E-08	20.9080917
7.77496E-08	20.6664993
8.00817E-08	20.4284046
8.24822E-08	20.1940447
8.49562E-08	19.9630867
8.75029E-08	19.7357583
9.01274E-08	19.5117361
9.28291E-08	19.2912409
9.40128E-08	19.1988683
9.56135E-08	19.0740445
9.84796E-08	18.8603436
1.01433E-07	18.6497704
1.04474E-07	18.4425334
1.07608E-07	18.2383388
1.10833E-07	18.0373922
1.14158E-07	17.8394162
1.17580E-07	17.6446195
1.21106E-07	17.4527351
1.24737E-07	17.2639453
1.28478E-07	17.077952
1.32329E-07	16.894905
1.36298E-07	16.7145297
1.40384E-07	16.5370152
1.44595E-07	16.3621283
1.48929E-07	16.1900552
1.53396E-07	16.0205564
1.57995E-07	15.8538015
1.62733E-07	15.6895559
1.67612E-07	15.527985
1.72639E-07	15.3688598
1.77814E-07	15.2123376
1.83147E-07	15.0581952
1.88637E-07	14.9065852
1.94296E-07	14.7572925
2.00120E-07	14.6104659
2.02672E-07	14.549006
2.06122E-07	14.4659354
2.12301E-07	14.3238376
2.18669E-07	14.1839476
2.25224E-07	14.0464185
2.31979E-07	13.911082
2.38933E-07	13.7780806
2.47138E-07	13.6286952
2.55625E-07	13.482036
2.64404E-07	13.3380782
2.73484E-07	13.1968305
2.82876E-07	13.0582749
2.92590E-07	12.9223785
3.02638E-07	12.7891075
3.13031E-07	12.6584288
3.23781E-07	12.5303103
3.34901E-07	12.4047214
3.46402E-07	12.2816324
3.58298E-07	12.1610148
3.70602E-07	12.0428415
3.83329E-07	11.9270865
3.96493E-07	11.8137252
4.10109E-07	11.7027341
4.24193E-07	11.5940915
4.38761E-07	11.487782
4.53829E-07	11.3838284
4.69414E-07	11.2822603
4.85534E-07	11.1829255
5.02208E-07	11.0857475
5.19455E-07	10.9907931
5.37294E-07	10.8980769
5.55745E-07	10.8075916
5.74830E-07	10.7193304
5.94571E-07	10.6332886
6.14990E-07	10.549464
6.36109E-07	10.4678568
6.57954E-07	10.38847
6.80549E-07	10.3113094
7.00962E-07	10.2458683
7.03921E-07	10.2363583
7.28094E-07	10.1634727
7.53098E-07	10.0928429
7.78961E-07	10.0244881
8.05712E-07	9.95843204
8.33381E-07	9.89470273
8.62001E-07	9.83333331
8.91603E-07	9.7743641
9.22222E-07	9.71789315
9.53893E-07	9.6640264
9.86651E-07	9.61257302
1.01196E-06	9.57566406
1.02623E-06	9.55625419
1.04051E-06	9.53670274
1.06987E-06	9.4994546
1.10006E-06	9.46411144
1.13110E-06	9.43072872
1.16301E-06	9.39936769
1.19583E-06	9.37009599
1.22957E-06	9.34298823
1.26427E-06	9.31812672
1.29994E-06	9.29560228
1.33662E-06	9.27551516
1.37433E-06	9.25753326
1.41311E-06	9.24220911
1.48727E-06	9.22143313
1.52924E-06	9.21443513
1.57239E-06	9.21069709
1.61676E-06	9.21057062
1.64696E-06	9.21417337
1.70928E-06	9.22070979
1.75751E-06	9.23157919
1.80710E-06	9.24693185
1.85809E-06	9.26711313
1.91052E-06	9.29253649
1.96443E-06	9.32364736
1.97329E-06	9.32960917
2.01986E-06	9.36015491
2.07685E-06	9.40321542
2.13545E-06	9.45361099
2.19571E-06	9.51206692
2.25766E-06	9.5794116
2.26785E-06	9.59175293
2.32137E-06	9.65557533
2.38687E-06	9.74244005
2.45422E-06	9.84145994
2.52347E-06	9.95409808
2.57061E-06	10.0388294
2.59467E-06	10.0815182
2.64958E-06	10.1878916
2.70552E-06	10.3047475
2.76251E-06	10.4331157
2.82056E-06	10.5741606
2.87326E-06	10.7123942
2.88025E-06	10.7305554
2.94106E-06	10.9014258
3.00302E-06	11.0898955
3.06612E-06	11.2979998
3.13101E-06	11.529903
3.16686E-06	11.669257
3.19711E-06	11.7860457
3.24159E-06	11.9710415
3.28733E-06	12.1729367
3.33306E-06	12.3874327
3.38008E-06	12.6220515
3.42711E-06	12.8719842
3.44257E-06	12.9596653
3.47546E-06	13.1450673
3.52381E-06	13.4364502
3.57352E-06	13.7572993
3.62324E-06	14.1015372
3.67435E-06	14.4820662
3.72547E-06	14.8920516
3.77803E-06	15.3473154
3.81745E-06	15.7132565
3.85761E-06	16.1095449
3.89815E-06	16.5354382
3.93868E-06	16.9895659
3.98035E-06	17.4884873
4.02203E-06	18.0227247
4.06410E-06	18.6011165
4.10695E-06	19.2345781
4.14980E-06	19.917177
4.18287E-06	20.4862124
4.19346E-06	20.6686812
4.23752E-06	21.491282
4.26689E-06	22.0783873
4.29668E-06	22.7081755
4.30090E-06	22.8026332
4.32688E-06	23.3861992
4.35709E-06	24.1058844
4.38729E-06	24.8704075
4.41792E-06	25.6953635
4.42225E-06	25.8198687
4.44897E-06	26.5894531
4.48003E-06	27.5447588
4.51108E-06	28.5664588
4.51584E-06	28.7340783
4.54258E-06	29.679662
4.57451E-06	30.8920325
4.60644E-06	32.1968232
4.61296E-06	32.4844107
4.63837E-06	33.608459
4.66255E-06	34.7535322
4.67804E-06	35.5336861
4.68717E-06	35.9943695
4.71179E-06	37.3173431
4.72685E-06	38.1795931
4.73642E-06	38.7286635
4.76104E-06	40.2369963
4.77658E-06	41.2541442
4.78567E-06	41.850516
4.81099E-06	43.6308833
4.82677E-06	44.8228525
4.83630E-06	45.5447675
4.86023E-06	47.4934633
4.86162E-06	47.6072694
4.88694E-06	49.8349785
4.89416E-06	50.5206386
4.91226E-06	52.2447755
4.92856E-06	53.9257684
4.93806E-06	54.9076833
4.95541E-06	56.8297572
4.96297E-06	57.7147766
4.97277E-06	58.8664339
4.98877E-06	60.85715
4.99012E-06	61.0262776
5.00748E-06	63.3213887
5.01457E-06	64.3166784
5.02483E-06	65.7613194
5.03948E-06	67.951288
5.04219E-06	68.3582808
5.05955E-06	71.128263
5.06438E-06	71.9487928
5.07539E-06	73.8203361
5.08929E-06	76.329374
5.09123E-06	76.6801139
5.10707E-06	79.7259411
5.11420E-06	81.183666
5.12291E-06	82.9701572
5.13080E-06	84.6933149
5.13875E-06	86.4329691
5.14741E-06	88.4527439
5.15459E-06	90.1335408
5.16360E-06	92.3837911
5.17043E-06	94.0942768
5.17980E-06	96.6013216
5.18628E-06	98.3400966
5.19599E-06	101.136086
5.20247E-06	103.004789
5.21219E-06	106.017122
5.21867E-06	108.030621
5.22838E-06	111.282231
5.23486E-06	113.455893
5.24458E-06	116.972816
5.25106E-06	119.32409
5.26077E-06	123.098083
5.26320E-06	124.044018
5.27292E-06	128.059396
5.27535E-06	129.065436
5.28385E-06	132.806688
5.28750E-06	134.413957
5.29762E-06	139.163693
5.29964E-06	140.116292
5.31138E-06	146.001888
5.31179E-06	146.20543
5.32151E-06	151.382025
5.32515E-06	153.437543
5.33284E-06	157.787894
5.33548E-06	159.372688
5.34418E-06	164.626376
5.34580E-06	165.668686
5.35552E-06	171.936777
5.35612E-06	172.35517
5.36645E-06	179.484337
5.36685E-06	179.764623
5.37677E-06	187.108895
5.37819E-06	188.16081
5.38710E-06	195.244017
5.38953E-06	197.181456
5.39924E-06	205.497557
5.40086E-06	206.887307
5.40734E-06	212.831652
5.41058E-06	215.810369
5.41544E-06	220.609872
5.42273E-06	227.825092
5.42354E-06	228.694932
5.43163E-06	237.412416
5.43487E-06	240.907766
5.43973E-06	246.527834
5.44297E-06	250.283643
5.44783E-06	256.247684
5.45107E-06	260.233628
5.45593E-06	266.570395
5.45917E-06	270.805704
5.46403E-06	277.546992
5.46726E-06	282.052986
5.47212E-06	289.234097
5.47536E-06	294.034417
5.48022E-06	301.694557
5.48346E-06	306.815494
5.48832E-06	314.998417
5.49156E-06	320.469272
5.49642E-06	329.223786
5.49965E-06	335.077293
5.50451E-06	344.458105
5.50775E-06	350.730944
5.51261E-06	360.79943
5.51585E-06	367.532745
5.52071E-06	378.358056
5.52395E-06	385.595078
5.52678E-06	392.394124
5.53205E-06	405.051544
5.53286E-06	407.146251
5.53893E-06	422.894805
5.54014E-06	426.052819
5.54500E-06	439.665177
5.54824E-06	448.764181
5.55107E-06	457.361363
5.55634E-06	473.370136
5.55715E-06	476.008449
5.56241E-06	493.203893
5.56322E-06	496.014219
5.56848E-06	514.332031
5.56929E-06	517.329638
5.57456E-06	536.869595
5.57537E-06	540.071419
5.58063E-06	560.944398
5.58144E-06	564.369386
5.58670E-06	586.701314
5.58792E-06	592.205783
5.59278E-06	614.28693
5.59278E-06	614.286979
5.59764E-06	637.966301
5.59885E-06	643.902125
5.60249E-06	662.821137
5.60351E-06	668.090838
5.60735E-06	689.294919
5.60877E-06	697.12893
5.61221E-06	717.368094
5.61403E-06	728.113616
5.61707E-06	747.188949
5.61930E-06	761.218258
5.62193E-06	778.900103
5.62456E-06	796.634446
5.62679E-06	812.657856
5.62982E-06	834.573917
5.63165E-06	848.633034
5.63509E-06	875.277834
5.63731E-06	893.734071
5.64035E-06	918.980452
5.64136E-06	927.963647
5.64501E-06	960.388634
5.64541E-06	964.260621
5.64946E-06	1003.08309
5.65108E-06	1018.65621
5.65351E-06	1043.67488
5.65513E-06	1060.40152
5.65756E-06	1086.93108
5.65918E-06	1104.66862
5.66161E-06	1132.81851
5.66323E-06	1151.64031
5.66566E-06	1181.52719
5.66728E-06	1201.51127
5.66971E-06	1233.2597
5.67132E-06	1254.48909
5.67375E-06	1288.23073
5.67537E-06	1310.7937
5.67780E-06	1346.66779
5.67942E-06	1370.65759
5.68185E-06	1408.8103
5.68347E-06	1434.32463
5.68590E-06	1474.90928
5.68752E-06	1502.05024
5.68995E-06	1545.22569
5.69157E-06	1574.09969
5.69400E-06	1620.02998
5.69562E-06	1650.74659
5.69805E-06	1699.59958
5.69967E-06	1732.27088
5.70210E-06	1784.21688
5.70372E-06	1818.95617
5.70614E-06	1874.1654
5.70776E-06	1911.08653
5.71019E-06	1969.72739
5.71181E-06	2008.94284
5.71424E-06	2071.17871
5.71586E-06	2112.79722
5.71829E-06	2178.78405
5.71991E-06	2222.90919
5.72234E-06	2292.79114
5.72396E-06	2339.51864
5.72639E-06	2413.42432
5.72801E-06	2462.8397
5.73044E-06	2540.87731
5.73206E-06	2593.04442
5.73408E-06	2661.57957
5.73611E-06	2730.28667
5.73773E-06	2787.94568
5.74015E-06	2874.64375
5.74137E-06	2920.02007
5.74420E-06	3026.14532
5.74501E-06	3058.14121
5.75028E-06	3266.69091
5.75048E-06	3275.19956
5.75595E-06	3505.65079
5.75635E-06	3522.7712
5.76121E-06	3739.20826
5.76242E-06	3793.45056
5.76607E-06	3963.59239
5.76850E-06	4077.29065
5.77255E-06	4274.43839
5.77603E-06	4444.36419
5.77902E-06	4595.83216
5.80040E-06	5679.10937
5.80445E-06	5877.17985
5.80688E-06	5995.77833
5.81336E-06	6296.45705
5.81336E-06	6296.45748
5.81854E-06	6518.92543
5.81984E-06	6574.34877
5.82372E-06	6726.38086
5.82469E-06	6764.21257
5.82891E-06	6912.60381
5.82955E-06	6935.28635
5.83441E-06	7085.23105
5.83474E-06	7093.74801
5.83927E-06	7211.85579
5.83959E-06	7218.6973
5.84413E-06	7313.34307
5.84445E-06	7318.41464
5.84899E-06	7388.20093
5.84931E-06	7391.39745
5.85401E-06	7436.41924
5.85417E-06	7437.01024
5.85864E-06	7452.06481
5.85935E-06	7454.20538
5.86295E-06	7446.44585
5.86599E-06	7426.44904
5.86703E-06	7419.27445
5.87012E-06	7381.53028
5.87231E-06	7354.30392
5.87425E-06	7319.36252
5.87717E-06	7266.17585
5.87911E-06	7220.95235
5.88203E-06	7152.31533
5.88397E-06	7097.01276
5.88737E-06	6999.28485
5.88964E-06	6920.35712
5.89450E-06	6749.98192
5.89628E-06	6687.13324
5.89935E-06	6561.61745
5.90276E-06	6422.25341
5.90421E-06	6357.2325
5.90923E-06	6132.38769
5.91012E-06	6090.08581
5.91571E-06	5823.80795
5.91709E-06	5754.85691
5.92753E-06	5230.09311
5.94000E-06	4602.813
5.94664E-06	4276.08506
5.94713E-06	4252.22015
5.95474E-06	3892.416
5.96082E-06	3619.06396
5.96689E-06	3359.63069
5.97296E-06	3115.1781
5.97701E-06	2960.9274
5.97904E-06	2887.14395
5.98106E-06	2813.60632
5.98511E-06	2673.21652
5.98916E-06	2539.95205
5.99118E-06	2476.58165
5.99321E-06	2413.4558
5.99726E-06	2293.57991
6.00130E-06	2180.3727
6.00333E-06	2126.76082
6.00535E-06	2073.37711
6.00940E-06	1972.36262
6.00940E-06	1972.36239
6.01345E-06	1877.28728
6.01547E-06	1832.37549
6.01750E-06	1787.66627
6.02155E-06	1703.2389
6.02560E-06	1623.91651
6.02762E-06	1586.48887
6.02965E-06	1549.23538
6.03369E-06	1478.93846
6.03774E-06	1412.92179
6.03977E-06	1381.77222
6.04179E-06	1350.76924
6.04584E-06	1292.24798
6.05070E-06	1226.63062
6.05191E-06	1211.24557
6.05495E-06	1172.9656
6.05799E-06	1136.89231
6.05920E-06	1122.52936
6.06406E-06	1068.87982
6.06487E-06	1059.97741
6.06983E-06	1009.50989
