E(MeV)	Fe-nat
1.000000E-11	216.302
1.103040E-11	206.014
1.216690E-11	196.221
1.342050E-11	186.9
1.480340E-11	178.028
1.632870E-11	169.584
1.801110E-11	161.549
1.986690E-11	153.901
2.191390E-11	146.624
2.417190E-11	139.699
2.666250E-11	133.11
2.940970E-11	126.841
3.244000E-11	120.877
3.578250E-11	115.216
3.603490E-11	114.823
3.946940E-11	109.828
4.002630E-11	109.085
4.353620E-11	104.702
4.446190E-11	103.642
4.802210E-11	99.8247
4.938660E-11	98.4844
5.297010E-11	95.1855
5.485960E-11	93.593
5.842800E-11	90.7731
6.093600E-11	88.9594
6.444830E-11	86.5771
6.768880E-11	84.5668
7.108880E-11	82.5876
7.518620E-11	80.4073
7.841360E-11	78.7952
8.351820E-11	76.4657
8.649310E-11	75.1907
9.276900E-11	72.7349
9.540510E-11	71.7657
1.030490E-10	69.2013
1.052350E-10	68.5121
1.144640E-10	65.8583
1.160780E-10	65.4219
1.271480E-10	62.6941
1.280390E-10	62.4876
1.412320E-10	59.7024
1.557840E-10	57.0709
1.568830E-10	56.8891
1.718350E-10	54.5739
1.742590E-10	54.2308
1.895400E-10	52.2095
1.949260E-10	51.5589
2.090700E-10	49.9644
2.180440E-10	49.0417
2.306120E-10	47.8344
2.439040E-10	46.6713
2.543740E-10	45.8145
2.728310E-10	44.4404
2.805830E-10	43.9001
3.051880E-10	42.342
3.094940E-10	42.087
3.413830E-10	40.3736
3.437910E-10	40.2557
3.765580E-10	38.7652
3.872580E-10	38.3223
4.153580E-10	37.2403
4.362430E-10	36.51
4.581550E-10	35.7971
4.948650E-10	34.7149
5.053620E-10	34.4269
5.574330E-10	33.1354
5.613650E-10	33.0468
6.148690E-10	31.9321
6.412620E-10	31.4341
6.782230E-10	30.7881
7.325660E-10	29.9304
7.481050E-10	29.7028
8.251880E-10	28.6863
8.427330E-10	28.4771
9.102130E-10	27.7354
9.762570E-10	27.0815
1.004000E-09	26.8276
1.107450E-09	25.9784
1.138920E-09	25.7456
1.221560E-09	25.1834
1.338050E-09	24.4726
1.347420E-09	24.4197
1.486250E-09	23.7204
1.583010E-09	23.2837
1.639390E-09	23.0491
1.808310E-09	22.4226
1.899240E-09	22.1208
1.994630E-09	21.8298
2.200150E-09	21.272
2.310780E-09	21.0039
2.426850E-09	20.7457
2.676910E-09	20.2522
2.871140E-09	19.9109
2.952730E-09	19.7794
3.256970E-09	19.3457
3.592560E-09	18.9214
3.668940E-09	18.8355
3.962720E-09	18.5343
4.371030E-09	18.1647
4.821410E-09	17.8038
5.318190E-09	17.4826
5.866160E-09	17.1707
6.470590E-09	16.8669
6.608170E-09	16.8057
7.137300E-09	16.5919
7.872710E-09	16.3312
8.683890E-09	16.0785
9.578650E-09	15.8329
9.646220E-09	15.8166
1.056560E-08	15.6149
1.165430E-08	15.4063
1.285510E-08	15.2047
1.417960E-08	15.0097
1.531580E-08	14.8626
1.564060E-08	14.824
1.725220E-08	14.6576
1.902980E-08	14.4975
2.099060E-08	14.3432
2.315340E-08	14.1942
2.524190E-08	14.0671
2.530000E-08	14.064
2.790680E-08	13.9368
3.078230E-08	13.815
3.395400E-08	13.6982
3.745250E-08	13.5861
4.131150E-08	13.4783
4.556810E-08	13.3747
5.026330E-08	13.2749
5.544230E-08	13.1786
5.701770E-08	13.153
6.115490E-08	13.0922
6.745610E-08	13.0122
7.440660E-08	12.9358
8.207320E-08	12.8627
9.052970E-08	12.7929
9.985770E-08	12.7262
1.101470E-07	12.6625
1.214960E-07	12.6015
1.340140E-07	12.5431
1.478230E-07	12.4872
1.630540E-07	12.4333
1.798550E-07	12.3816
1.983860E-07	12.3319
2.188270E-07	12.2841
2.282210E-07	12.265
2.430770E-07	12.2377
2.681230E-07	12.1981
2.957500E-07	12.1605
3.285080E-07	12.1221
3.623570E-07	12.088
3.996930E-07	12.0556
4.408760E-07	12.0248
4.897330E-07	11.9934
5.364100E-07	11.9674
5.958540E-07	11.939
6.618520E-07	11.9119
7.300480E-07	11.8879
8.052700E-07	11.8651
8.882420E-07	11.8433
9.797640E-07	11.8225
1.080720E-06	11.8028
1.217410E-06	11.7801
1.342850E-06	11.7624
1.491590E-06	11.7444
1.668490E-06	11.726
1.827610E-06	11.712
2.001800E-06	11.6985
2.192700E-06	11.6856
2.401690E-06	11.6733
2.612290E-06	11.6623
2.942720E-06	11.6476
3.314780E-06	11.6337
3.630890E-06	11.6236
3.949290E-06	11.6147
4.325700E-06	11.6054
4.672300E-06	11.5979
5.153720E-06	11.5886
5.644920E-06	11.5805
6.054520E-06	11.5744
6.678360E-06	11.5661
7.263990E-06	11.5594
7.846030E-06	11.5535
8.654460E-06	11.5461
9.413380E-06	11.5401
1.060360E-05	11.5317
1.161480E-05	11.5254
1.254480E-05	11.5203
1.354990E-05	11.5153
1.494610E-05	11.5092
1.625670E-05	11.5041
1.768230E-05	11.4991
1.909820E-05	11.4947
2.048390E-05	11.4908
2.228020E-05	11.4862
2.406540E-05	11.4821
2.635910E-05	11.4773
2.867060E-05	11.4729
3.118470E-05	11.4686
3.415860E-05	11.464
3.767820E-05	11.4591
4.069520E-05	11.4552
4.457610E-05	11.4506
4.814540E-05	11.4467
5.273680E-05	11.4421
5.695960E-05	11.4381
6.239150E-05	11.4333
6.786270E-05	11.4288
7.537940E-05	11.423
8.141920E-05	11.4186
8.793870E-05	11.4141
9.768380E-05	11.4076
1.069940E-04	11.4017
1.171980E-04	11.3955
1.301790E-04	11.388
1.406090E-04	11.3821
1.529400E-04	11.3753
1.540110E-04	11.3747
1.572860E-04	11.3308
1.722760E-04	11.2822
1.873840E-04	11.2336
2.009800E-04	11.1899
2.096070E-04	11.1624
2.140640E-04	11.1483
2.163520E-04	11.1411
2.186410E-04	11.134
2.200910E-04	11.1296
2.214650E-04	11.1255
2.224940E-04	11.1226
2.231760E-04	11.1208
2.238580E-04	11.1191
2.243700E-04	11.118
2.248820E-04	11.117
2.253550E-04	11.1163
2.256710E-04	11.1159
2.259870E-04	11.1157
2.262720E-04	11.1158
2.265280E-04	11.116
2.267420E-04	11.1164
2.269120E-04	11.1168
2.270830E-04	11.1175
2.272530E-04	11.1183
2.273810E-04	11.1192
2.275090E-04	11.1201
2.276370E-04	11.1214
2.277650E-04	11.1228
2.278930E-04	11.1246
2.280210E-04	11.1267
2.281060E-04	11.1284
2.281920E-04	11.1303
2.282770E-04	11.1324
2.283620E-04	11.1348
2.284480E-04	11.1374
2.285330E-04	11.1404
2.286180E-04	11.1437
2.287030E-04	11.1474
2.287890E-04	11.1514
2.288740E-04	11.1558
2.290020E-04	11.1629
2.291730E-04	11.1731
2.293860E-04	11.1863
2.295140E-04	11.1935
2.296100E-04	11.1982
2.296840E-04	11.2014
2.297700E-04	11.2042
2.298550E-04	11.2061
2.299400E-04	11.2071
2.299980E-04	11.2071
2.300790E-04	11.2064
2.301450E-04	11.2051
2.302300E-04	11.2026
2.303160E-04	11.1991
2.304010E-04	11.1949
2.304860E-04	11.1901
2.306140E-04	11.182
2.309550E-04	11.1589
2.310830E-04	11.1508
2.311690E-04	11.1458
2.312540E-04	11.1411
2.313390E-04	11.1367
2.314250E-04	11.1327
2.315100E-04	11.129
2.315950E-04	11.1256
2.316800E-04	11.1226
2.317660E-04	11.1198
2.318510E-04	11.1173
2.319360E-04	11.115
2.320220E-04	11.1129
2.321500E-04	11.1101
2.322780E-04	11.1076
2.324050E-04	11.1054
2.325330E-04	11.1035
2.326610E-04	11.1017
2.328320E-04	11.0997
2.330030E-04	11.0978
2.331730E-04	11.0962
2.333780E-04	11.0945
2.335830E-04	11.0929
2.338380E-04	11.0911
2.340940E-04	11.0895
2.343820E-04	11.0879
2.347340E-04	11.086
2.352030E-04	11.0838
2.356720E-04	11.0818
2.363500E-04	11.079
2.369740E-04	11.0766
2.378070E-04	11.0735
2.390570E-04	11.0691
2.403040E-04	11.0649
2.419650E-04	11.0594
2.445010E-04	11.0511
2.479130E-04	11.04
2.547370E-04	11.0182
2.674510E-04	10.9776
2.868570E-04	10.9159
2.958500E-04	10.8874
3.074000E-04	10.8543
3.225290E-04	10.8111
3.311900E-04	10.7865
3.370700E-04	10.7698
3.406170E-04	10.7599
3.428750E-04	10.7536
3.450250E-04	10.7478
3.465950E-04	10.7436
3.480780E-04	10.7398
3.490670E-04	10.7373
3.498090E-04	10.7356
3.504650E-04	10.7341
3.510770E-04	10.7328
3.516900E-04	10.7317
3.520990E-04	10.731
3.525070E-04	10.7304
3.529150E-04	10.7299
3.533240E-04	10.7296
3.536140E-04	10.7295
3.539040E-04	10.7296
3.541950E-04	10.7298
3.544850E-04	10.7302
3.546780E-04	10.7306
3.548720E-04	10.7312
3.550350E-04	10.7318
3.551990E-04	10.7325
3.553620E-04	10.7334
3.555260E-04	10.7345
3.556550E-04	10.7356
3.557840E-04	10.7368
3.559130E-04	10.7382
3.560420E-04	10.7399
3.561710E-04	10.7419
3.563000E-04	10.7441
3.564290E-04	10.7468
3.565150E-04	10.7489
3.566010E-04	10.7511
3.566870E-04	10.7537
3.567730E-04	10.7565
3.568590E-04	10.7597
3.569450E-04	10.7632
3.570310E-04	10.7671
3.571170E-04	10.7715
3.572030E-04	10.7763
3.572890E-04	10.7817
3.573750E-04	10.7876
3.574610E-04	10.7941
3.575470E-04	10.8011
3.576330E-04	10.8088
3.577190E-04	10.817
3.578480E-04	10.8303
3.579770E-04	10.8446
3.580370E-04	10.8515
3.583160E-04	10.8852
3.584320E-04	10.8982
3.585480E-04	10.9098
3.586300E-04	10.9168
3.587160E-04	10.923
3.588020E-04	10.9278
3.588880E-04	10.931
3.589630E-04	10.9324
3.589970E-04	10.9327
3.590550E-04	10.9324
3.591330E-04	10.931
3.592150E-04	10.9279
3.593010E-04	10.9233
3.593740E-04	10.9182
3.594640E-04	10.9108
3.595550E-04	10.9022
3.596710E-04	10.89
3.596880E-04	10.888
3.598860E-04	10.8643
3.600580E-04	10.8437
3.601870E-04	10.8289
3.602730E-04	10.8197
3.603590E-04	10.811
3.604450E-04	10.8028
3.605310E-04	10.7952
3.606170E-04	10.7883
3.607030E-04	10.7819
3.607890E-04	10.776
3.608750E-04	10.7707
3.609610E-04	10.7658
3.610470E-04	10.7614
3.611330E-04	10.7574
3.612190E-04	10.7537
3.613050E-04	10.7504
3.613910E-04	10.7474
3.614770E-04	10.7446
3.615630E-04	10.7421
3.616490E-04	10.7398
3.617780E-04	10.7367
3.619070E-04	10.7339
3.620360E-04	10.7314
3.621650E-04	10.7292
3.622940E-04	10.7272
3.624660E-04	10.7249
3.625950E-04	10.7233
3.627880E-04	10.7211
3.629950E-04	10.7191
3.632080E-04	10.7172
3.634200E-04	10.7155
3.636330E-04	10.714
3.638460E-04	10.7126
3.641490E-04	10.7108
3.644720E-04	10.7091
3.647940E-04	10.7075
3.651170E-04	10.706
3.656000E-04	10.704
3.660840E-04	10.7021
3.665680E-04	10.7004
3.672130E-04	10.6982
3.678580E-04	10.6961
3.687180E-04	10.6935
3.695780E-04	10.691
3.705670E-04	10.6882
3.722440E-04	10.6835
3.739210E-04	10.679
3.766300E-04	10.6719
3.787800E-04	10.6663
3.830800E-04	10.6553
3.908200E-04	10.6356
4.037200E-04	10.6028
4.243600E-04	10.5507
4.541070E-04	10.4756
4.890530E-04	10.3875
5.029500E-04	10.3525
5.278000E-04	10.2995
5.594020E-04	10.2323
5.916450E-04	10.1637
6.326380E-04	10.0766
6.737890E-04	9.98925
6.764610E-04	9.98358
7.215810E-04	9.83715
7.661380E-04	9.69261
8.102970E-04	9.54942
8.559630E-04	9.40141
8.876780E-04	9.29865
9.129020E-04	9.2232
9.388420E-04	9.14564
9.575810E-04	9.08964
9.744420E-04	9.03928
9.750810E-04	9.03738
9.819590E-04	9.03692
9.908450E-04	9.03916
1.003250E-03	9.04231
1.013720E-03	9.04501
1.024200E-03	9.04775
1.034670E-03	9.05055
1.042530E-03	9.05269
1.050380E-03	9.05489
1.055620E-03	9.05639
1.060860E-03	9.05794
1.066100E-03	9.05954
1.070020E-03	9.06079
1.073950E-03	9.06208
1.077880E-03	9.06342
1.081810E-03	9.06484
1.084750E-03	9.06596
1.087700E-03	9.06714
1.090650E-03	9.06839
1.093590E-03	9.06973
1.095560E-03	9.07067
1.097520E-03	9.07168
1.099500E-03	9.07275
1.101480E-03	9.0739
1.103460E-03	9.07514
1.105440E-03	9.07649
1.107340E-03	9.0779
1.108760E-03	9.07905
1.110180E-03	9.08028
1.111610E-03	9.08163
1.113030E-03	9.08309
1.114450E-03	9.08469
1.115880E-03	9.08647
1.117300E-03	9.08843
1.118250E-03	9.08987
1.119200E-03	9.09142
1.120150E-03	9.09311
1.121030E-03	9.09483
1.121860E-03	9.09656
1.122680E-03	9.09844
1.123510E-03	9.10049
1.124330E-03	9.10273
1.125160E-03	9.10518
1.125980E-03	9.10789
1.126810E-03	9.11088
1.127510E-03	9.11368
1.128090E-03	9.11619
1.128660E-03	9.11891
1.129240E-03	9.12186
1.129820E-03	9.12507
1.130400E-03	9.12857
1.130970E-03	9.13241
1.131550E-03	9.13662
1.132050E-03	9.14057
1.132670E-03	9.14601
1.133280E-03	9.1521
1.133700E-03	9.15658
1.134110E-03	9.16144
1.134480E-03	9.16619
1.134520E-03	9.16687
1.134930E-03	9.17418
1.135330E-03	9.18161
1.135700E-03	9.18915
1.136070E-03	9.19723
1.136440E-03	9.20592
1.136810E-03	9.2153
1.137180E-03	9.22545
1.137550E-03	9.2365
1.137920E-03	9.24855
1.138240E-03	9.25985
1.138510E-03	9.27008
1.138780E-03	9.28106
1.139050E-03	9.29289
1.139320E-03	9.30567
1.139580E-03	9.31951
1.139850E-03	9.33455
1.140120E-03	9.35094
1.140360E-03	9.36673
1.140670E-03	9.38938
1.140870E-03	9.40596
1.141080E-03	9.42389
1.141290E-03	9.44332
1.141410E-03	9.45599
1.141490E-03	9.46573
1.141700E-03	9.492
1.141910E-03	9.52042
1.142150E-03	9.5578
1.142320E-03	9.58499
1.142480E-03	9.61424
1.142650E-03	9.64582
1.142810E-03	9.68002
1.142980E-03	9.71719
1.143140E-03	9.75775
1.143300E-03	9.79929
1.143440E-03	9.84158
1.143590E-03	9.88776
1.143730E-03	9.93841
1.143840E-03	9.97908
1.143870E-03	9.99583
1.144020E-03	10.0636
1.144130E-03	10.1191
1.144240E-03	10.1791
1.144340E-03	10.2444
1.144440E-03	10.3058
1.144550E-03	10.3887
1.144640E-03	10.4569
1.144730E-03	10.531
1.144810E-03	10.6119
1.144870E-03	10.6669
1.144900E-03	10.7032
1.144990E-03	10.8076
1.145070E-03	10.9224
1.145160E-03	11.0492
1.145250E-03	11.1899
1.145330E-03	11.335
1.145380E-03	11.4374
1.145390E-03	11.4722
1.145460E-03	11.6287
1.145530E-03	11.7996
1.145600E-03	11.9866
1.145670E-03	12.1916
1.145740E-03	12.4168
1.145800E-03	12.6494
1.145870E-03	12.9512
1.145940E-03	13.2649
1.146010E-03	13.6094
1.146070E-03	13.9399
1.146120E-03	14.2731
1.146130E-03	14.313
1.146180E-03	14.6447
1.146230E-03	15.0464
1.146290E-03	15.4787
1.146350E-03	15.9437
1.146380E-03	16.2212
1.146400E-03	16.4505
1.146460E-03	17.0033
1.146510E-03	17.5952
1.146570E-03	18.2284
1.146620E-03	18.9048
1.146680E-03	19.6714
1.146740E-03	20.4888
1.146790E-03	21.2348
1.146800E-03	21.3618
1.146850E-03	22.3054
1.146910E-03	23.305
1.146970E-03	24.362
1.147020E-03	25.2382
1.147030E-03	25.4816
1.147110E-03	27.2061
1.147190E-03	28.8603
1.147200E-03	29.249
1.147260E-03	30.628
1.147360E-03	33.1344
1.147390E-03	33.9098
1.147460E-03	35.8116
1.147560E-03	38.8861
1.147590E-03	39.5534
1.147760E-03	44.7699
1.148090E-03	54.9973
1.148210E-03	58.4833
1.148220E-03	58.8655
1.148350E-03	62.3915
1.148410E-03	63.6612
1.148450E-03	64.7484
1.148550E-03	66.8012
1.148600E-03	67.7266
1.148650E-03	68.5109
1.148740E-03	69.6619
1.148750E-03	69.832
1.148850E-03	70.7731
1.148880E-03	70.8983
1.148950E-03	71.2034
1.149000E-03	71.2577
1.149110E-03	70.9915
1.149130E-03	70.8223
1.149190E-03	70.4296
1.149270E-03	69.5794
1.149290E-03	69.307
1.149370E-03	68.1737
1.149420E-03	67.2342
1.149470E-03	66.3874
1.149570E-03	64.264
1.149620E-03	63.0107
1.149630E-03	62.6909
1.149770E-03	59.1917
1.149820E-03	57.6695
1.149900E-03	55.3605
1.150160E-03	47.208
1.150340E-03	41.6123
1.150470E-03	37.9419
1.150480E-03	37.6156
1.150580E-03	34.7547
1.150660E-03	32.5672
1.150670E-03	32.3941
1.150760E-03	30.1833
1.150850E-03	28.1061
1.150930E-03	26.245
1.150990E-03	25.0775
1.151010E-03	24.6814
1.151050E-03	23.979
1.151110E-03	22.9442
1.151170E-03	21.9662
1.151180E-03	21.7685
1.151220E-03	21.0559
1.151280E-03	20.2029
1.151340E-03	19.3487
1.151350E-03	19.2929
1.151400E-03	18.5914
1.151460E-03	17.9344
1.151510E-03	17.3194
1.151570E-03	16.7446
1.151590E-03	16.5458
1.151630E-03	16.2182
1.151680E-03	15.7339
1.151740E-03	15.2831
1.151790E-03	14.864
1.151840E-03	14.5465
1.151850E-03	14.4767
1.151900E-03	14.127
1.151970E-03	13.7683
1.152030E-03	13.4387
1.152090E-03	13.1558
1.152150E-03	12.8683
1.152210E-03	12.6224
1.152280E-03	12.3966
1.152340E-03	12.1891
1.152400E-03	11.9981
1.152460E-03	11.831
1.152520E-03	11.6774
1.152590E-03	11.5246
1.152670E-03	11.3642
1.152740E-03	11.2188
1.152820E-03	11.0864
1.152860E-03	11.0251
1.152900E-03	10.9695
1.152980E-03	10.867
1.153050E-03	10.7733
1.153130E-03	10.6874
1.153230E-03	10.5833
1.153340E-03	10.4895
1.153420E-03	10.4193
1.153520E-03	10.3436
1.153620E-03	10.274
1.153720E-03	10.2098
1.153770E-03	10.1804
1.153850E-03	10.1358
1.153980E-03	10.0714
1.154110E-03	10.013
1.154250E-03	9.95976
1.154380E-03	9.91094
1.154530E-03	9.86063
1.154690E-03	9.80969
1.154860E-03	9.76325
1.155020E-03	9.7207
1.155190E-03	9.68156
1.155270E-03	9.66347
1.155350E-03	9.64726
1.155520E-03	9.61747
1.155680E-03	9.59001
1.155870E-03	9.56157
1.156070E-03	9.53268
1.156280E-03	9.50628
1.156490E-03	9.48208
1.156690E-03	9.4598
1.156900E-03	9.43925
1.157110E-03	9.42021
1.157310E-03	9.40253
1.157550E-03	9.38371
1.157820E-03	9.36413
1.158090E-03	9.34616
1.158350E-03	9.32958
1.158620E-03	9.31425
1.158890E-03	9.3
1.159160E-03	9.28674
1.159310E-03	9.27959
1.159430E-03	9.2751
1.159730E-03	9.26418
1.160060E-03	9.25313
1.160380E-03	9.243
1.160720E-03	9.2337
1.161050E-03	9.22512
1.161370E-03	9.21719
1.161710E-03	9.20984
1.162200E-03	9.19977
1.162610E-03	9.19216
1.163030E-03	9.18515
1.163440E-03	9.17869
1.163850E-03	9.1727
1.164260E-03	9.16715
1.164670E-03	9.16197
1.165290E-03	9.15485
1.165790E-03	9.14963
1.166370E-03	9.14401
1.166940E-03	9.13883
1.167520E-03	9.13403
1.168100E-03	9.12958
1.168680E-03	9.12542
1.169250E-03	9.12153
1.169830E-03	9.11788
1.170490E-03	9.11396
1.171230E-03	9.10984
1.171980E-03	9.106
1.172720E-03	9.10238
1.173460E-03	9.09898
1.174200E-03	9.09576
1.174950E-03	9.0927
1.176060E-03	9.08838
1.177050E-03	9.08477
1.178040E-03	9.08134
1.179030E-03	9.07808
1.180020E-03	9.07497
1.181010E-03	9.07198
1.182000E-03	9.0691
1.183490E-03	9.06495
1.185050E-03	9.06077
1.186660E-03	9.05667
1.188270E-03	9.05271
1.189880E-03	9.04888
1.191490E-03	9.04517
1.192560E-03	9.04274
1.194540E-03	9.03836
1.196520E-03	9.03409
1.198500E-03	9.0299
1.200480E-03	9.02579
1.202410E-03	9.02185
1.205310E-03	9.01603
1.208210E-03	9.01031
1.211110E-03	9.00468
1.214010E-03	8.99911
1.217100E-03	8.99322
1.220580E-03	8.98667
1.224060E-03	8.98016
1.227540E-03	8.97371
1.232170E-03	8.96516
1.236810E-03	8.95666
1.241450E-03	8.9482
1.246860E-03	8.93839
1.249950E-03	8.93279
1.256140E-03	8.92164
1.262320E-03	8.91051
1.271600E-03	8.89388
1.280880E-03	8.8773
1.289910E-03	8.86118
1.298950E-03	8.84508
1.311800E-03	8.82222
1.324170E-03	8.80025
1.342720E-03	8.76733
1.358420E-03	8.7395
1.377580E-03	8.70554
1.398380E-03	8.66872
1.428110E-03	8.6161
1.467310E-03	8.54676
1.509000E-03	8.48095
1.541090E-03	8.43033
1.561290E-03	8.39847
1.576440E-03	8.3746
1.587090E-03	8.35785
1.593530E-03	8.34776
1.597820E-03	8.34105
1.601040E-03	8.33603
1.604250E-03	8.33105
1.606400E-03	8.32774
1.608550E-03	8.32446
1.610150E-03	8.32203
1.611760E-03	8.31962
1.613220E-03	8.31748
1.614370E-03	8.31582
1.615520E-03	8.3142
1.616280E-03	8.31315
1.617050E-03	8.31213
1.617820E-03	8.31115
1.618390E-03	8.31045
1.618970E-03	8.30978
1.619600E-03	8.30909
1.620020E-03	8.30867
1.620440E-03	8.30828
1.620860E-03	8.30793
1.621280E-03	8.30764
1.621600E-03	8.30746
1.621920E-03	8.30732
1.622230E-03	8.30724
1.622470E-03	8.30721
1.622740E-03	8.30723
1.623010E-03	8.30731
1.623280E-03	8.30747
1.623480E-03	8.30764
1.623680E-03	8.30787
1.623880E-03	8.30817
1.624080E-03	8.30856
1.624280E-03	8.30905
1.624420E-03	8.30944
1.624570E-03	8.30997
1.624690E-03	8.31049
1.624820E-03	8.31109
1.624950E-03	8.31179
1.625070E-03	8.31261
1.625200E-03	8.31357
1.625280E-03	8.31431
1.625370E-03	8.31513
1.625450E-03	8.31606
1.625540E-03	8.31709
1.625620E-03	8.31826
1.625710E-03	8.31957
1.625790E-03	8.32183
1.625860E-03	8.32396
1.625950E-03	8.32689
1.626020E-03	8.329
1.626080E-03	8.33125
1.626140E-03	8.33366
1.626200E-03	8.33624
1.626260E-03	8.339
1.626320E-03	8.34196
1.626380E-03	8.34515
1.626440E-03	8.34857
1.626510E-03	8.35225
1.626570E-03	8.3562
1.626630E-03	8.36046
1.626690E-03	8.36504
1.626750E-03	8.36996
1.626810E-03	8.37526
1.626880E-03	8.38113
1.626940E-03	8.38745
1.627000E-03	8.39425
1.627070E-03	8.40155
1.627130E-03	8.40938
1.627190E-03	8.41778
1.627250E-03	8.42675
1.627320E-03	8.43634
1.627380E-03	8.44657
1.627440E-03	8.45745
1.627520E-03	8.47155
1.627590E-03	8.48511
1.627660E-03	8.49952
1.627730E-03	8.51478
1.627800E-03	8.53091
1.627900E-03	8.5567
1.628000E-03	8.58437
1.628090E-03	8.60826
1.628190E-03	8.63793
1.628280E-03	8.66811
1.628340E-03	8.68553
1.628530E-03	8.75201
1.628910E-03	8.885
1.629090E-03	8.94635
1.629220E-03	8.98415
1.629340E-03	9.01855
1.629460E-03	9.04877
1.629580E-03	9.07414
1.629710E-03	9.09406
1.629830E-03	9.10809
1.629930E-03	9.11485
1.629940E-03	9.11545
1.630000E-03	9.11536
1.630110E-03	9.11087
1.630180E-03	9.10503
1.630310E-03	9.09038
1.630430E-03	9.06989
1.630550E-03	9.04401
1.630670E-03	9.01336
1.630800E-03	8.97863
1.630920E-03	8.94057
1.631100E-03	8.87904
1.631560E-03	8.71848
1.631730E-03	8.66286
1.631860E-03	8.6205
1.631970E-03	8.58853
1.632060E-03	8.56369
1.632160E-03	8.53626
1.632260E-03	8.51073
1.632330E-03	8.49478
1.632400E-03	8.47969
1.632470E-03	8.46544
1.632540E-03	8.45202
1.632620E-03	8.43738
1.632690E-03	8.42568
1.632760E-03	8.41474
1.632830E-03	8.40451
1.632900E-03	8.39497
1.632970E-03	8.38607
1.633030E-03	8.3778
1.633100E-03	8.3701
1.633170E-03	8.36295
1.633240E-03	8.3563
1.633310E-03	8.35012
1.633370E-03	8.345
1.633430E-03	8.3402
1.633460E-03	8.33795
1.633490E-03	8.33617
1.633560E-03	8.3329
1.633620E-03	8.32988
1.633680E-03	8.3271
1.633740E-03	8.32454
1.633800E-03	8.32218
1.633860E-03	8.32
1.633920E-03	8.318
1.633980E-03	8.31615
1.634050E-03	8.31444
1.634140E-03	8.31211
1.634230E-03	8.31005
1.634290E-03	8.30879
