E(MeV)	"HF-177(N,TOT)"	
1.00000E-11	18148.8	
1.10240E-11	17285.4	
1.21504E-11	16464.7	
1.33946E-11	15681.4	
1.47633E-11	14936.9	
1.62750E-11	14226.3	
1.79381E-11	13550.8	
1.97749E-11	12906.2	
2.17956E-11	12293.4	
2.40274E-11	11708.6	
2.64826E-11	11152.7	
2.91943E-11	10622.1	
3.21775E-11	10117.8	
3.54723E-11	9636.49	
3.90970E-11	9178.96	
4.31005E-11	8742.32	
4.75046E-11	8327.27	
5.23690E-11	7931.15	
5.77202E-11	7554.62	
5.85345E-11	7505.11	
6.36306E-11	7195.27	
6.54260E-11	7100.95	
7.01326E-11	6853.69	
7.31288E-11	6717.67	
7.73139E-11	6527.69	
8.17386E-11	6354.13	
8.52142E-11	6217.81	
9.13619E-11	6009.44	
9.39398E-11	5922.07	
1.02118E-10	5682.56	
1.03539E-10	5640.95	
1.14141E-10	5372.66	
1.25804E-10	5117.64	
1.27579E-10	5084.1	
1.38686E-10	4874.26	
1.44583E-10	4777.99	
1.52858E-10	4642.9	
1.63886E-10	4487.34	
1.68510E-10	4422.11	
1.85729E-10	4212.24	
2.04747E-10	4011.95	
2.10524E-10	3959.38	
2.25669E-10	3821.56	
2.38584E-10	3720.01	
2.48777E-10	3639.86	
2.74198E-10	3467.16	
3.02275E-10	3302.33	
3.15128E-10	3237.14	
3.33162E-10	3145.67	
3.67277E-10	2996.15	
4.04807E-10	2854.03	
4.27973E-10	2778.24	
4.46258E-10	2718.41	
4.91858E-10	2589.49	
5.05736E-10	2555.59	
5.42223E-10	2466.47	
5.97629E-10	2349.53	
6.06060E-10	2334.16	
6.58824E-10	2237.94	
7.26145E-10	2131.88	
7.36390E-10	2117.93	
8.00501E-10	2030.66	
8.82299E-10	1934.45	
9.19993E-10	1896.15	
9.72643E-10	1842.65	
1.07203E-09	1755.39	
1.16536E-09	1684.6	
1.18180E-09	1672.13	
1.30256E-09	1593	
1.43594E-09	1517.49	
1.53924E-09	1466.97	
1.58267E-09	1445.72	
1.74474E-09	1377.25	
1.92302E-09	1312.17	
2.11993E-09	1250.08	
2.33655E-09	1191.08	
2.57581E-09	1134.78	
2.83901E-09	1081.29	
3.08618E-09	1037.9	
3.12972E-09	1030.26	
3.44953E-09	981.771	
3.80275E-09	935.52	
4.19133E-09	891.582	
4.62050E-09	849.678	
4.81697E-09	833.116	
5.09264E-09	809.876	
5.61412E-09	771.924	
6.18779E-09	735.883	
6.82140E-09	701.52	
7.51843E-09	668.888	
8.17440E-09	642.372	
8.28830E-09	637.768	
9.13523E-09	608.203	
1.00706E-08	580.011	
1.10997E-08	553.232	
1.12582E-08	549.673	
1.22363E-08	527.717	
1.34866E-08	503.522	
1.48676E-08	480.5	
1.63868E-08	458.674	
1.80648E-08	437.881	
1.80679E-08	437.848	
1.99107E-08	418.146	
2.19495E-08	399.359	
2.41924E-08	381.566	
2.50875E-08	375.159	
2.50897E-08	375.144	
2.53000E-08	373.69	
2.78906E-08	357.199	
3.07406E-08	341.626	
3.29584E-08	331.221	
3.38884E-08	326.858	
3.73512E-08	312.889	
4.06030E-08	301.617	
4.11758E-08	299.631	
4.53833E-08	287.099	
4.79806E-08	280.469	
5.00305E-08	275.236	
5.51428E-08	264.077	
5.59207E-08	262.628	
6.07892E-08	253.557	
6.33740E-08	249.453	
6.70009E-08	243.695	
7.08353E-08	238.519	
7.38616E-08	234.434	
7.80886E-08	229.596	
8.14090E-08	225.795	
8.60680E-08	221.289	
8.97450E-08	217.733	
9.35611E-08	214.628	
9.89155E-08	210.272	
1.01707E-07	208.403	
1.09044E-07	203.49	
1.10561E-07	202.474	
1.16889E-07	199.035	
1.23578E-07	195.4	
1.25321E-07	194.642	
1.34337E-07	190.726	
1.38127E-07	189.08	
1.42025E-07	187.754	
1.50153E-07	184.988	
1.54389E-07	183.547	
1.58746E-07	182.417	
1.67831E-07	180.061	
1.72566E-07	178.834	
1.77435E-07	177.913	
1.85016E-07	176.481	
1.92883E-07	174.995	
2.01124E-07	173.947	
2.09676E-07	172.86	
2.15592E-07	172.108	
2.18633E-07	171.89	
2.27930E-07	171.224	
2.37668E-07	170.527	
2.40974E-07	170.29	
2.47774E-07	170.127	
2.58359E-07	169.875	
2.65475E-07	169.705	
2.68996E-07	169.706	
2.69345E-07	169.714	
2.80852E-07	169.996	
2.92794E-07	170.29	
2.96541E-07	170.382	
3.05303E-07	170.969	
3.18285E-07	171.841	
3.26842E-07	172.417	
3.27266E-07	172.462	
3.36500E-07	173.46	
3.45995E-07	174.487	
3.55298E-07	175.495	
3.55758E-07	175.564	
3.65796E-07	177.062	
3.76118E-07	178.604	
3.86230E-07	180.117	
3.86730E-07	180.213	
3.97643E-07	182.304	
4.08863E-07	184.456	
4.14094E-07	185.46	
4.20399E-07	186.948	
4.32261E-07	189.751	
4.43883E-07	192.5	
4.44458E-07	192.663	
4.56999E-07	196.213	
4.69286E-07	199.696	
4.69894E-07	199.898	
4.83153E-07	204.312	
4.93378E-07	207.721	
4.96143E-07	208.644	
5.03795E-07	211.586	
5.14407E-07	215.672	
5.17340E-07	216.802	
5.25217E-07	220.247	
5.36332E-07	225.114	
5.39338E-07	226.432	
5.47655E-07	230.593	
5.59191E-07	236.37	
5.62380E-07	237.969	
5.70942E-07	242.902	
5.83025E-07	249.874	
5.86293E-07	251.762	
5.95335E-07	257.659	
6.02836E-07	262.559	
6.07875E-07	266.207	
6.19846E-07	274.889	
6.20649E-07	275.538	
6.29405E-07	282.627	
6.37336E-07	289.056	
6.38161E-07	289.806	
6.47165E-07	297.992	
6.55319E-07	305.416	
6.56168E-07	306.289	
6.65425E-07	315.815	
6.73810E-07	324.454	
6.74683E-07	325.461	
6.84201E-07	336.454	
6.88069E-07	340.928	
6.93720E-07	348.167	
7.02597E-07	359.557	
7.03507E-07	360.858	
7.13294E-07	374.864	
7.17396E-07	380.745	
7.23358E-07	390.317	
7.32472E-07	404.978	
7.33421E-07	406.7	
7.43768E-07	425.513	
7.47973E-07	433.171	
7.51529E-07	440.37	
7.58452E-07	454.408	
7.59435E-07	456.587	
7.67415E-07	474.305	
7.69078E-07	478.005	
7.75394E-07	493.426	
7.79853E-07	504.334	
7.83599E-07	514.435	
7.90779E-07	533.836	
7.91803E-07	536.904	
8.00085E-07	561.746	
8.01858E-07	567.076	
8.08521E-07	589.382	
8.13092E-07	604.717	
8.16957E-07	619.029	
8.21596E-07	636.242	
8.25552E-07	652.283	
8.30259E-07	671.415	
8.34226E-07	689.102	
8.38922E-07	710.079	
8.40009E-07	715.427	
8.45873E-07	744.326	
8.47748E-07	753.58	
8.51819E-07	775.819	
8.56655E-07	802.282	
8.57765E-07	809.03	
8.63711E-07	845.245	
8.65562E-07	856.545	
8.69741E-07	885.029	
8.74721E-07	919.049	
8.75854E-07	927.75	
8.81968E-07	974.777	
8.83880E-07	989.516	
8.88082E-07	1025.34	
8.89986E-07	1041.6	
8.94282E-07	1081.56	
8.96264E-07	1100.04	
9.00568E-07	1143.89	
9.02542E-07	1164.05	
9.06854E-07	1212.32	
9.08820E-07	1234.37	
9.11569E-07	1268.28	
9.15098E-07	1311.88	
9.16284E-07	1328.06	
9.21131E-07	1394.35	
9.21553E-07	1400.13	
9.25979E-07	1467.44	
9.28008E-07	1498.37	
9.30827E-07	1546.22	
9.34463E-07	1608.11	
9.35674E-07	1630.82	
9.39305E-07	1699.09	
9.40522E-07	1724.06	
9.44237E-07	1800.48	
9.45461E-07	1828.05	
9.49215E-07	1912.86	
9.50445E-07	1943.4	
9.54193E-07	2036.71	
9.55430E-07	2070.65	
9.59171E-07	2173.63	
9.60414E-07	2211.47	
9.63737E-07	2312.87	
9.64149E-07	2325.48	
9.67060E-07	2424.31	
9.69174E-07	2496.27	
9.71635E-07	2589.74	
9.74293E-07	2691.03	
9.76004E-07	2762.73	
9.77705E-07	2834.24	
9.80373E-07	2955.52	
9.81117E-07	2989.45	
9.83286E-07	3096.55	
9.84530E-07	3158.12	
9.86199E-07	3247.81	
9.87942E-07	3341.72	
9.89112E-07	3410.26	
9.91354E-07	3542.01	
9.92024E-07	3584.93	
9.94767E-07	3761.05	
9.95870E-07	3837.93	
9.97629E-07	3960.77	
9.98434E-07	4021.46	
1.00049E-06	4176.78	
1.00100E-06	4218.17	
1.00335E-06	4410.75	
1.00356E-06	4429.24	
1.00613E-06	4656.64	
1.00622E-06	4664.57	
1.00869E-06	4902.99	
1.00908E-06	4940.4	
1.01125E-06	5168.49	
1.01194E-06	5240.51	
1.01371E-06	5442.71	
1.01480E-06	5567.49	
1.01606E-06	5724.27	
1.01766E-06	5924.16	
1.01841E-06	6026.28	
1.02076E-06	6347.93	
1.02087E-06	6362.59	
1.02311E-06	6701.45	
1.02407E-06	6847.02	
1.02546E-06	7078.64	
1.02728E-06	7382.24	
1.02781E-06	7480.61	
1.03016E-06	7914.39	
1.03048E-06	7973.71	
1.03326E-06	8539.49	
1.03369E-06	8626.8	
1.03615E-06	9178.47	
1.03689E-06	9346.85	
1.03903E-06	9874.22	
1.04010E-06	10138.6	
1.04191E-06	10629.7	
1.04330E-06	11006.2	
1.04480E-06	11447.1	
1.04651E-06	11952.3	
1.04758E-06	12293.5	
1.04971E-06	12977.6	
1.05014E-06	13122.7	
1.05185E-06	13704.7	
1.05356E-06	14321.2	
1.05552E-06	15031.8	
1.05698E-06	15589.9	
1.05920E-06	16445.1	
1.06040E-06	16930.2	
1.06471E-06	18683	
1.06578E-06	19122.5	
1.07339E-06	22253.9	
1.07475E-06	22782.6	
1.07680E-06	23574.1	
1.07834E-06	24119.5	
1.08022E-06	24784.1	
1.08193E-06	25314.8	
1.08364E-06	25843.4	
1.08433E-06	26018	
1.08706E-06	26712	
1.08774E-06	26847.9	
1.08962E-06	27218.4	
1.09031E-06	27317.5	
1.09219E-06	27587.1	
1.09272E-06	27633.3	
1.09484E-06	27814.1	
1.09583E-06	27843.5	
1.09719E-06	27880.8	
1.09855E-06	27835.2	
1.09903E-06	27818.6	
1.10026E-06	27774.6	
1.10146E-06	27654.5	
1.10296E-06	27502.8	
1.10390E-06	27355.1	
1.10552E-06	27097.1	
1.10638E-06	26918	
1.10808E-06	26557.1	
1.10894E-06	26337.3	
1.11065E-06	25894.6	
1.11236E-06	25372.4	
1.11407E-06	24847	
1.11620E-06	24098.1	
1.11749E-06	23646.8	
1.12005E-06	22649.1	
1.12261E-06	21648.7	
1.12445E-06	20891.6	
1.13313E-06	17312.8	
1.13548E-06	16378.4	
1.13680E-06	15852.6	
1.14048E-06	14465.4	
1.14052E-06	14450.3	
1.14415E-06	13168.6	
1.14479E-06	12957.3	
1.14704E-06	12219.7	
1.14800E-06	11924	
1.14992E-06	11334	
1.15120E-06	10968.1	
1.15280E-06	10511.9	
1.15441E-06	10089.3	
1.15569E-06	9752.13	
1.15761E-06	9285.26	
1.15857E-06	9052.5	
1.16082E-06	8547.87	
1.16338E-06	8011.91	
1.16402E-06	7887.73	
1.16594E-06	7516.38	
1.16723E-06	7287.14	
1.16851E-06	7058.62	
1.17043E-06	6741.38	
1.17107E-06	6635.93	
1.17289E-06	6359.45	
1.17364E-06	6245.89	
1.17567E-06	5960.64	
1.17620E-06	5885.77	
1.17844E-06	5594.66	
1.17876E-06	5553.19	
1.18122E-06	5259.55	
1.18154E-06	5221.35	
1.18400E-06	4952.38	
1.18453E-06	4894.06	
1.18678E-06	4669.56	
1.18752E-06	4594.92	
1.18955E-06	4408.98	
1.19052E-06	4321.18	
1.19351E-06	4070.13	
1.19372E-06	4053.61	
1.19650E-06	3839.79	
1.19757E-06	3763.96	
1.19949E-06	3627.94	
1.20141E-06	3502.32	
1.20248E-06	3432.76	
1.20526E-06	3265.94	
1.20569E-06	3240.36	
1.20910E-06	3052.27	
1.20910E-06	3052.27	
1.21252E-06	2880.08	
1.21295E-06	2860.27	
1.21594E-06	2722.06	
1.21680E-06	2685.64	
1.21936E-06	2576.74	
1.22064E-06	2526.43	
1.22278E-06	2442.85	
1.22449E-06	2380.96	
1.22620E-06	2319.26	
1.22876E-06	2235	
1.23132E-06	2151.02	
1.23303E-06	2100.4	
1.23560E-06	2024.71	
1.23731E-06	1978.54	
1.23987E-06	1909.5	
1.24158E-06	1867.28	
1.24414E-06	1804.19	
1.24799E-06	1717.2	
1.24842E-06	1707.58	
1.25269E-06	1618.92	
1.25440E-06	1586.18	
1.25696E-06	1537.28	
1.26089E-06	1467.97	
1.26124E-06	1461.92	
1.26755E-06	1361.07	
1.26774E-06	1358.05	
1.27421E-06	1266.19	
1.27444E-06	1262.99	
1.28087E-06	1181.57	
1.28113E-06	1178.26	
1.28753E-06	1105.81	
1.28783E-06	1102.44	
1.29419E-06	1037.72	
1.29452E-06	1034.33	
1.30104E-06	974.616	
1.30122E-06	972.943	
1.30788E-06	917.783	
1.30810E-06	915.967	
1.31499E-06	864.475	
1.31701E-06	850.692	
1.32187E-06	817.776	
1.32614E-06	791.391	
1.32876E-06	775.312	
1.33540E-06	737.952	
1.33564E-06	736.607	
1.34265E-06	700.662	
1.34479E-06	690.783	
1.35209E-06	657.108	
1.35417E-06	648.538	
1.36153E-06	618.397	
1.36356E-06	610.942	
1.37097E-06	583.878	
1.37308E-06	576.948	
1.38054E-06	552.593	
1.38273E-06	546.157	
1.39024E-06	524.215	
1.39238E-06	518.587	
1.39995E-06	498.809	
1.40686E-06	482.507	
1.40965E-06	475.97	
1.41949E-06	455.164	
1.42175E-06	450.859	
1.42947E-06	436.212	
1.43663E-06	423.933	
1.43945E-06	419.139	
1.45166E-06	400.768	
1.45442E-06	396.649	
1.46697E-06	380.514	
1.46980E-06	376.889	
1.48227E-06	363.237	
1.48519E-06	360.06	
1.49787E-06	348.279	
1.50073E-06	345.639	
1.51360E-06	335.545	
1.51655E-06	333.252	
1.52934E-06	324.874	
1.53238E-06	322.905	
1.54553E-06	315.814	
1.54850E-06	314.228	
1.56171E-06	308.495	
1.56477E-06	307.185	
1.58104E-06	301.681	
1.58309E-06	301.154	
1.59369E-06	298.488	
1.59777E-06	297.483	
1.61450E-06	294.63	
1.61618E-06	294.478	
1.63531E-06	292.86	
1.63866E-06	292.783	
1.64497E-06	292.678	
1.66178E-06	293.466	
1.66818E-06	293.807	
1.68490E-06	296.154	
1.69139E-06	297.104	
1.70273E-06	299.75	
1.71525E-06	302.74	
1.72056E-06	304.484	
1.73855E-06	310.507	
1.73911E-06	310.698	
1.75688E-06	318.234	
1.75751E-06	318.506	
1.77521E-06	327.481	
1.77592E-06	327.842	
1.79389E-06	338.547	
1.79449E-06	338.91	
1.81274E-06	351.544	
1.81341E-06	352.017	
1.83159E-06	366.548	
1.83233E-06	367.153	
1.85097E-06	384.284	
1.85161E-06	384.883	
1.87035E-06	404.653	
1.87106E-06	405.419	
1.88327E-06	420.148	
1.89052E-06	428.984	
1.89655E-06	437.321	
1.90984E-06	455.849	
1.91052E-06	456.816	
1.92312E-06	476.557	
1.92386E-06	477.725	
1.93641E-06	499.379	
1.93720E-06	500.754	
1.95007E-06	525.261	
1.95072E-06	526.518	
1.96373E-06	553.911	
1.96443E-06	555.414	
1.97739E-06	585.66	
1.97814E-06	587.451	
1.99105E-06	620.935	
1.99186E-06	623.062	
2.00158E-06	651.188	
2.00576E-06	663.4	
2.01211E-06	683.951	
2.01986E-06	709.255	
2.02265E-06	719.242	
2.03044E-06	747.427	
2.03318E-06	758.212	
2.04101E-06	789.273	
2.04371E-06	800.947	
2.05158E-06	835.261	
2.05445E-06	848.883	
2.06236E-06	886.933	
2.06528E-06	902.322	
2.07323E-06	944.697	
2.07611E-06	961.559	
2.08410E-06	1008.93	
2.08694E-06	1027.47	
2.09416E-06	1075.12	
2.09498E-06	1080.55	
2.10138E-06	1127.71	
2.10585E-06	1160.88	
2.10849E-06	1182.64	
2.11549E-06	1240.77	
2.11652E-06	1249.43	
2.12248E-06	1304.95	
2.12678E-06	1345.35	
2.12948E-06	1373	
2.13363E-06	1415.96	
2.13647E-06	1447.69	
2.14047E-06	1492.63	
2.14347E-06	1529.02	
2.14731E-06	1576.06	
2.15047E-06	1617.8	
2.15415E-06	1667.09	
2.15746E-06	1714.96	
2.16100E-06	1766.62	
2.16354E-06	1806.95	
2.16784E-06	1875.88	
2.17128E-06	1935.42	
2.17343E-06	1973.09	
2.17902E-06	2078.22	
2.18418E-06	2183.72	
2.18461E-06	2192.59	
2.18934E-06	2297.74	
2.19020E-06	2317.04	
2.19450E-06	2421.24	
2.19579E-06	2452.8	
2.19966E-06	2555.31	
2.20138E-06	2601.28	
2.20439E-06	2688.63	
2.20697E-06	2764.31	
2.21084E-06	2887.87	
2.21256E-06	2943.37	
2.21514E-06	3034.88	
2.21901E-06	3173.34	
2.21944E-06	3190.13	
2.22331E-06	3342.53	
2.22374E-06	3360.74	
2.22761E-06	3526.03	
2.22804E-06	3545.82	
2.23191E-06	3725.51	
2.23234E-06	3747.06	
2.23621E-06	3942.88	
2.23664E-06	3966.41	
2.24051E-06	4180.21	
2.24438E-06	4414.14	
2.24481E-06	4440.39	
2.24825E-06	4668.02	
2.24890E-06	4711.13	
2.25212E-06	4944.36	
2.25276E-06	4991.5	
2.25599E-06	5246.48	
2.25663E-06	5298.02	
2.25986E-06	5577.47	
2.26050E-06	5633.98	
2.26373E-06	5941.01	
2.26437E-06	6003.11	
2.26760E-06	6341.29	
2.26824E-06	6409.63	
2.27061E-06	6683.13	
2.27211E-06	6858.76	
2.27362E-06	7050.93	
2.27599E-06	7355.65	
2.27663E-06	7446.3	
2.27942E-06	7842.71	
2.27964E-06	7875.68	
2.28243E-06	8308.27	
2.28265E-06	8344.1	
2.28544E-06	8814.32	
2.28566E-06	8853.31	
2.28846E-06	9364.92	
2.28867E-06	9407.36	
2.29147E-06	9964.42	
2.29168E-06	10010.7	
2.29426E-06	10570.4	
2.29448E-06	10617.5	
2.29684E-06	11175.8	
2.29749E-06	11329.4	
2.29942E-06	11826.5	
2.30049E-06	12105	
2.30200E-06	12523.7	
2.30318E-06	12855.4	
2.30458E-06	13279.1	
2.30673E-06	13936.4	
2.30716E-06	14079.7	
2.30974E-06	14946.7	
2.31028E-06	15128.8	
2.31232E-06	15881.5	
2.31382E-06	16441.1	
2.31555E-06	17134.6	
2.31737E-06	17878.5	
2.31877E-06	18493.1	
2.32092E-06	19447.2	
2.32199E-06	19958.5	
2.32415E-06	20990	
2.32522E-06	21538.5	
2.32737E-06	22644.2	
2.32844E-06	23234.2	
2.33145E-06	24897.8	
2.33167E-06	25017.5	
2.33533E-06	27186.8	
2.33597E-06	27572.2	
2.33919E-06	29599.3	
2.34006E-06	30143.3	
2.34500E-06	33418.8	
2.34780E-06	35276.4	
2.35704E-06	41466.8	
2.35734E-06	41656.6	
2.36220E-06	44698.2	
2.36564E-06	46667.6	
2.36684E-06	47292.9	
2.36942E-06	48609.1	
2.37149E-06	49514.9	
2.37355E-06	50400.1	
2.37493E-06	50875.7	
2.37734E-06	51684.5	
2.37837E-06	51943.8	
2.38078E-06	52522.9	
2.38181E-06	52688.2	
2.38375E-06	52977.5	
2.38525E-06	53069.1	
2.38752E-06	53182.7	
2.38834E-06	53149.6	
2.39061E-06	53032.8	
2.39178E-06	52892	
2.39282E-06	52755.7	
2.39522E-06	52266.1	
2.39626E-06	52044.7	
2.39866E-06	51329.5	
2.39970E-06	51012.3	
2.40210E-06	50081.5	
2.40348E-06	49537.1	
2.40529E-06	48690.9	
2.40726E-06	47746.6	
2.40967E-06	46455.9	
2.41070E-06	45894.1	
2.41406E-06	43888.3	
2.41586E-06	42796.5	
2.41939E-06	40499.7	
2.42292E-06	38187.8	
2.43238E-06	31865.4	
2.43293E-06	31507.3	
2.43831E-06	28081.6	
2.43874E-06	27822.5	
2.44261E-06	25506.9	
2.44648E-06	23344.8	
2.44691E-06	23106.3	
2.44970E-06	21650.4	
2.45014E-06	21428	
2.45293E-06	20066.4	
2.45336E-06	19858.6	
2.45616E-06	18600.1	
2.45723E-06	18120.2	
2.45938E-06	17236.4	
2.46110E-06	16535.8	
2.46260E-06	15965.5	
2.46368E-06	15561.7	
2.46518E-06	15029.1	
2.46626E-06	14651.8	
2.46819E-06	14013.1	
2.46884E-06	13802.1	
2.47121E-06	13075.4	
2.47142E-06	13010	
2.47400E-06	12272.8	
2.47422E-06	12215.4	
2.47701E-06	11477.3	
2.47723E-06	11424.6	
2.48002E-06	10746.4	
2.48024E-06	10698	
2.48303E-06	10075.2	
2.48324E-06	10030.7	
2.48604E-06	9458.59	
2.48625E-06	9417.75	
2.48905E-06	8892.29	
2.48948E-06	8817.22	
2.49206E-06	8371.78	
2.49292E-06	8233.8	
2.49507E-06	7892.75	
2.49636E-06	7702.45	
2.49808E-06	7451.5	
2.49980E-06	7219.08	
2.50152E-06	6989.17	
2.50324E-06	6777.04	
2.50496E-06	6567.16	
2.50668E-06	6373.22	
2.50840E-06	6181.29	
2.51012E-06	6003.64	
2.51184E-06	5827.81	
2.51356E-06	5664.78	
2.51528E-06	5503.48	
2.51743E-06	5316.22	
2.51872E-06	5205.15	
2.52173E-06	4964.09	
2.52216E-06	4930.05	
2.52560E-06	4676.36	
2.52603E-06	4646.99	
2.52990E-06	4385.84	
2.53033E-06	4359.14	
2.53420E-06	4121.61	
2.53463E-06	4097.27	
2.53850E-06	3880.63	
2.53893E-06	3858.38	
2.54280E-06	3660.29	
2.54323E-06	3639.89	
2.54710E-06	3458.29	
2.54753E-06	3439.55	
2.55140E-06	3272.79	
2.55248E-06	3229.69	
2.55570E-06	3101.96	
2.55807E-06	3014.65	
2.56000E-06	2944.1	
2.56365E-06	2820.49	
2.56516E-06	2770.19	
2.56924E-06	2644.15	
2.57032E-06	2611.35	
2.57483E-06	2483.9	
2.57548E-06	2465.89	
2.58042E-06	2337.85	
2.58064E-06	2332.34	
2.58580E-06	2209.49	
2.58601E-06	2204.72	
2.59096E-06	2096.2	
2.59160E-06	2083.2	
2.59784E-06	1958.96	
2.59870E-06	1942.01	
2.60472E-06	1833.54	
2.61160E-06	1720.49	
2.61848E-06	1617.66	
2.62536E-06	1523.84	
2.63224E-06	1438.01	
2.63912E-06	1359.29	
2.64600E-06	1286.92	
2.65288E-06	1220.26	
2.65374E-06	1212.5	
2.66019E-06	1155.01	
2.66234E-06	1137.22	
2.66793E-06	1091.5	
2.67094E-06	1068.63	
2.67567E-06	1033.12	
2.67954E-06	1006.08	
2.68341E-06	979.344	
2.68814E-06	948.88	
2.69115E-06	929.701	
2.69674E-06	896.978	
2.70276E-06	862.109	
2.70534E-06	848.565	
2.71437E-06	801.776	
2.71824E-06	783.325	
2.72303E-06	760.77	
2.72783E-06	739.794	
2.73262E-06	719.044	
2.73741E-06	699.778	
2.74221E-06	680.76	
2.75180E-06	645.378	
2.76138E-06	612.889	
2.76618E-06	597.956	
2.77576E-06	568.531	
2.78056E-06	555.189	
2.79015E-06	528.884	
2.79494E-06	516.923	
2.80480E-06	492.668	
2.80973E-06	481.616	
2.81958E-06	459.816	
2.82451E-06	449.859	
2.83437E-06	430.21	
2.83930E-06	421.211	
2.84916E-06	403.445	
2.85409E-06	395.286	
2.86394E-06	379.173	
2.86887E-06	371.753	
2.87887E-06	356.89	
2.88394E-06	349.939	
2.89407E-06	336.229	
2.90421E-06	323.559	
2.90928E-06	317.321	
2.92448E-06	299.988	
2.93969E-06	284.138	
2.94476E-06	279.222	
2.95489E-06	269.536	
2.96531E-06	260.37	
2.97574E-06	251.335	
2.98616E-06	243.104	
2.99658E-06	234.988	
3.00700E-06	227.571	
3.01742E-06	220.254	
3.02785E-06	213.547	
3.03827E-06	206.928	
3.04898E-06	200.679	
3.05970E-06	194.512	
3.07042E-06	188.839	
3.08113E-06	183.24	
3.09185E-06	178.077	
3.10256E-06	172.978	
3.11328E-06	168.264	
3.12400E-06	163.622	
3.14603E-06	154.789	
3.16807E-06	146.751	
3.17909E-06	143.018	
3.19011E-06	139.35	
3.21215E-06	132.525	
3.23480E-06	126.101	
3.24613E-06	123.107	
3.25746E-06	120.163	
3.28012E-06	114.76	
3.29145E-06	112.102	
3.31443E-06	107.231	
3.32608E-06	104.801	
3.34938E-06	100.392	
3.36103E-06	98.2205	
3.38432E-06	94.2662	
3.39597E-06	92.3189	
3.41993E-06	88.6704	
3.43191E-06	86.8735	
3.45586E-06	83.5959	
3.46784E-06	81.9812	
3.49180E-06	79.0296	
3.50411E-06	77.5377	
3.54106E-06	73.4429	
3.57801E-06	69.7631	
3.59032E-06	68.6372	
3.61565E-06	66.3668	
3.64098E-06	64.2828	
3.65364E-06	63.2603	
3.69163E-06	60.4427	
3.73069E-06	57.8307	
3.74371E-06	57.0307	
3.76975E-06	55.461	
3.79579E-06	54.0393	
3.82257E-06	52.6048	
3.84935E-06	51.3264	
3.87612E-06	50.0719	
3.90290E-06	48.9572	
3.93043E-06	47.8327	
3.95796E-06	46.8379	
3.98549E-06	45.8623	
4.01302E-06	45.0052	
4.04133E-06	44.1412	
4.06964E-06	43.3898	
4.09795E-06	42.6539	
4.12626E-06	42.0245	
4.15536E-06	41.3917	
4.18447E-06	40.8634	
4.21358E-06	40.3475	
4.24269E-06	39.9277	
4.27261E-06	39.5073	
4.30254E-06	39.1869	
4.33247E-06	38.8766	
4.36240E-06	38.6433	
4.36681E-06	38.6103	
4.42395E-06	38.3457	
4.42842E-06	38.3262	
4.48549E-06	38.2802	
4.49003E-06	38.2778	
4.55338E-06	38.4836	
4.56459E-06	38.5663	
4.61672E-06	38.9668	
4.64459E-06	39.289	
4.66557E-06	39.5376	
4.70966E-06	40.2323	
4.71442E-06	40.3087	
4.76373E-06	41.3196	
4.77564E-06	41.6235	
4.81396E-06	42.6114	
4.82582E-06	42.9858	
4.86419E-06	44.2074	
4.87600E-06	44.6639	
4.91040E-06	46.0026	
4.91537E-06	46.1972	
4.94479E-06	47.5465	
