E(MeV)	Hf-179
1.00000E-11	2232.7
1.10240E-11	2126.54
1.21504E-11	2025.64
1.33946E-11	1929.35
1.47633E-11	1837.81
1.62750E-11	1750.46
1.79381E-11	1667.43
1.97749E-11	1588.19
2.17956E-11	1512.88
2.40274E-11	1441
2.64826E-11	1372.68
2.91943E-11	1307.48
3.21775E-11	1245.51
3.54723E-11	1186.37
3.90970E-11	1130.16
4.31005E-11	1076.53
4.75046E-11	1025.54
5.23690E-11	976.899
5.30975E-11	970.592
5.77202E-11	930.663
5.93489E-11	918.485
6.36306E-11	886.541
6.63362E-11	869.069
7.01326E-11	844.605
7.41462E-11	822.218
7.73139E-11	804.587
8.28757E-11	777.794
8.52142E-11	766.551
9.26330E-11	735.684
9.39398E-11	730.258
1.03539E-10	695.763
1.14141E-10	662.858
1.15729E-10	658.592
1.25804E-10	631.585
1.29354E-10	623.349
1.38686E-10	601.748
1.46623E-10	585.848
1.52858E-10	573.385
1.66166E-10	550.367
1.68510E-10	546.321
1.85729E-10	520.607
1.88349E-10	517.221
2.04747E-10	496.076
2.13453E-10	486.362
2.25669E-10	472.762
2.45316E-10	453.838
2.48777E-10	450.511
2.74198E-10	429.374
2.81935E-10	423.808
3.02275E-10	409.208
3.24019E-10	395.705
3.33162E-10	390.039
3.67277E-10	371.754
3.77640E-10	366.948
4.04807E-10	354.38
4.46258E-10	337.793
4.91858E-10	322.045
5.27343E-10	311.445
5.42223E-10	307.01
5.97629E-10	292.727
6.31831E-10	285.102
6.58824E-10	279.097
7.26145E-10	266.146
7.78533E-10	257.43
8.00501E-10	253.784
8.82299E-10	242.043
9.72643E-10	230.829
1.07203E-09	220.185
1.18180E-09	210.021
1.24944E-09	204.605
1.30256E-09	200.361
1.43594E-09	191.148
1.58267E-09	182.385
1.65029E-09	178.893
1.74474E-09	174.027
1.92302E-09	166.086
2.11993E-09	158.504
2.30449E-09	152.359
2.33655E-09	151.294
2.57581E-09	144.423
2.83901E-09	137.889
3.12972E-09	131.65
3.40219E-09	126.595
3.44953E-09	125.719
3.80275E-09	120.067
4.19133E-09	114.693
4.62050E-09	109.563
5.09264E-09	104.685
5.53601E-09	100.725
5.61412E-09	100.029
6.18779E-09	95.6103
6.82140E-09	91.3923
7.51843E-09	87.3813
8.28830E-09	83.5509
9.13523E-09	79.9073
1.00706E-08	76.4249
1.06470E-08	74.569
1.10997E-08	73.1142
1.22363E-08	69.9576
1.34866E-08	66.9577
1.48676E-08	64.0964
1.63868E-08	61.3766
1.80648E-08	58.7776
1.99107E-08	56.3026
2.19495E-08	53.9379
2.41924E-08	51.6891
2.50875E-08	50.8768
2.53000E-08	50.6905
2.78906E-08	48.5945
3.07406E-08	46.6013
3.38884E-08	44.7003
3.73512E-08	42.8946
4.11758E-08	41.1668
4.53833E-08	39.5192
5.00305E-08	37.945
5.51428E-08	36.4472
6.07892E-08	35.0167
6.70009E-08	33.659
7.38616E-08	32.3628
8.14090E-08	31.1223
8.97450E-08	29.9352
9.89155E-08	28.8048
1.09044E-07	27.7235
1.20187E-07	26.6932
1.32493E-07	25.7078
1.42025E-07	25.0502
1.46032E-07	24.7744
1.60985E-07	23.8763
1.77435E-07	23.0184
1.95604E-07	22.1967
2.15592E-07	21.4125
2.37668E-07	20.6607
2.61954E-07	19.9425
2.84759E-07	19.3533
3.13918E-07	18.6905
3.45995E-07	18.0539
3.81424E-07	17.4424
4.20399E-07	16.8564
4.63447E-07	16.2927
5.10804E-07	15.7531
5.63108E-07	15.2326
6.20649E-07	14.7331
6.47165E-07	14.5306
6.74683E-07	14.3227
7.54116E-07	13.8012
8.31335E-07	13.3625
9.03711E-07	13.0008
9.82389E-07	12.652
1.06792E-06	12.3155
1.16089E-06	11.9922
1.26196E-06	11.6826
1.35274E-06	11.4382
1.37182E-06	11.3874
1.49125E-06	11.1102
1.59853E-06	10.894
1.71386E-06	10.6886
1.83715E-06	10.4984
1.96969E-06	10.3259
2.11138E-06	10.1754
2.25010E-06	10.0596
2.37887E-06	9.9823
2.51501E-06	9.93013
2.53022E-06	9.92789
2.65894E-06	9.90022
2.77254E-06	9.90745
2.89043E-06	9.94093
2.98996E-06	9.99844
3.01392E-06	10.01
3.09896E-06	10.0754
3.18640E-06	10.1652
3.27631E-06	10.2845
3.34198E-06	10.3946
3.36876E-06	10.4366
3.46381E-06	10.625
3.53678E-06	10.8006
3.58240E-06	10.9298
3.61110E-06	11.008
3.68752E-06	11.254
3.76538E-06	11.5504
3.78741E-06	11.6497
3.84469E-06	11.901
3.89855E-06	12.174
3.94922E-06	12.463
3.95317E-06	12.485
4.00856E-06	12.8338
4.06472E-06	13.2331
4.11715E-06	13.6549
4.12166E-06	13.6906
4.17941E-06	14.2149
4.23332E-06	14.7764
4.23796E-06	14.8242
4.28229E-06	15.3403
4.32744E-06	15.927
4.35277E-06	16.2954
4.37259E-06	16.581
4.41860E-06	17.326
4.46502E-06	18.1752
4.47559E-06	18.3943
4.51145E-06	19.1324
4.54327E-06	19.8625
4.57510E-06	20.662
4.60188E-06	21.4001
4.60692E-06	21.5384
4.63875E-06	22.4983
4.67147E-06	23.5879
4.70419E-06	24.7956
4.73691E-06	26.138
4.76510E-06	27.4266
4.76964E-06	27.6337
4.80328E-06	29.3542
4.82852E-06	30.785
4.85375E-06	32.3544
4.86524E-06	33.1404
4.87898E-06	34.0831
4.90422E-06	35.991
4.93016E-06	38.1626
4.93388E-06	38.5083
4.95611E-06	40.5842
4.98206E-06	43.2873
4.98536E-06	43.6725
5.00800E-06	46.324
5.02412E-06	48.446
5.03395E-06	49.7447
5.05122E-06	52.2675
5.05652E-06	53.11
5.06845E-06	55.0103
5.07812E-06	56.6876
5.08569E-06	58.0038
5.09756E-06	60.2575
5.10293E-06	61.2794
5.11484E-06	63.7598
5.12017E-06	64.8734
5.13211E-06	67.6103
5.13741E-06	68.8271
5.14939E-06	71.8557
5.15464E-06	73.1891
5.16666E-06	76.5512
5.17188E-06	78.0164
5.17962E-06	80.3986
5.18633E-06	82.4713
5.19257E-06	84.5965
5.20381E-06	88.4326
5.20553E-06	89.087
5.21848E-06	94.0389
5.22129E-06	95.1164
5.23170E-06	99.5028
5.23295E-06	100.031
5.24460E-06	105.363
5.24544E-06	105.775
5.25459E-06	110.33
5.25626E-06	111.16
5.26375E-06	115.218
5.26791E-06	117.479
5.27291E-06	120.461
5.28207E-06	125.944
5.29122E-06	132.024
5.29455E-06	134.242
5.30038E-06	138.521
5.30704E-06	143.427
5.30870E-06	144.784
5.31703E-06	151.588
5.31953E-06	153.636
5.32536E-06	158.94
5.33202E-06	165.023
5.33368E-06	166.718
5.34200E-06	175.222
5.34450E-06	177.783
5.35033E-06	184.342
5.35283E-06	187.163
5.35866E-06	194.274
5.36115E-06	197.334
5.36698E-06	205.063
5.36948E-06	208.387
5.37281E-06	213.196
5.37780E-06	220.431
5.37863E-06	221.743
5.38446E-06	230.952
5.38613E-06	233.592
5.39029E-06	240.788
5.39445E-06	248.009
5.39612E-06	251.167
5.40195E-06	262.26
5.40278E-06	263.85
5.40777E-06	274.266
5.41027E-06	279.493
5.41360E-06	287.051
5.41693E-06	294.634
5.41859E-06	298.736
5.42359E-06	311.083
5.42859E-06	324.516
5.43025E-06	329.01
5.43358E-06	338.781
5.43691E-06	348.588
5.43857E-06	353.934
5.44357E-06	370.029
5.44856E-06	387.697
5.45023E-06	393.61
5.45356E-06	406.582
5.45689E-06	419.603
5.45772E-06	423.153
5.46188E-06	440.965
5.46230E-06	442.753
5.46605E-06	460.301
5.46855E-06	472.045
5.47021E-06	480.665
5.47437E-06	502.3
5.47479E-06	504.472
5.47854E-06	526.078
5.48103E-06	540.543
5.48270E-06	551.244
5.48686E-06	578.11
5.48728E-06	580.809
5.49061E-06	604.862
5.49352E-06	625.999
5.49435E-06	632.628
5.49768E-06	659.26
5.49810E-06	662.857
5.50184E-06	695.37
5.50559E-06	730.735
5.50601E-06	734.684
5.50934E-06	768.957
5.51017E-06	777.569
5.51308E-06	810.343
5.51433E-06	824.462
5.51683E-06	855.233
5.51850E-06	875.85
5.52016E-06	898.365
5.52266E-06	932.3
5.52349E-06	944.68
5.52682E-06	994.437
5.53015E-06	1049.01
5.53057E-06	1055.86
5.53348E-06	1108.07
5.53431E-06	1123.07
5.53681E-06	1172.07
5.53806E-06	1196.7
5.54014E-06	1241.46
5.54180E-06	1277.46
5.54347E-06	1316.74
5.54555E-06	1366.09
5.54638E-06	1387.64
5.54930E-06	1463.44
5.55221E-06	1546.6
5.55304E-06	1570.48
5.55513E-06	1635.66
5.55679E-06	1688.06
5.55804E-06	1730.74
5.56012E-06	1802.22
5.56095E-06	1833.11
5.56345E-06	1926.21
5.56387E-06	1942.96
5.56678E-06	2060.76
5.57011E-06	2206.68
5.57053E-06	2226.32
5.57344E-06	2364.6
5.57427E-06	2407.06
5.57677E-06	2535.2
5.57802E-06	2603.91
5.58010E-06	2719.11
5.58176E-06	2817.71
5.58343E-06	2916.88
5.58551E-06	3050.1
5.58749E-06	3177.34
5.58905E-06	3285.62
5.59155E-06	3459.71
5.59248E-06	3529.75
5.59561E-06	3764.27
5.59592E-06	3789.29
5.59935E-06	4065.75
5.59966E-06	4090.99
5.60279E-06	4358.7
5.60372E-06	4439.35
5.60695E-06	4734.67
5.60924E-06	4945.08
5.61069E-06	5087.49
5.61548E-06	5557.26
5.61631E-06	5643.32
5.62193E-06	6226.43
5.62360E-06	6399.79
5.63317E-06	7416.93
5.63671E-06	7792.81
5.64154E-06	8281.83
5.64370E-06	8500.19
5.64803E-06	8905.14
5.64895E-06	8990.3
5.65303E-06	9334.63
5.65386E-06	9404.36
5.65802E-06	9710.88
5.65860E-06	9753.31
5.66318E-06	10033.5
5.66335E-06	10043.5
5.66834E-06	10277.1
5.66868E-06	10287.7
5.67334E-06	10430.7
5.67367E-06	10435.8
5.67747E-06	10489.4
5.67820E-06	10499
5.67973E-06	10503.4
5.68200E-06	10486.4
5.68463E-06	10464.2
5.68500E-06	10455.6
5.68932E-06	10349.2
5.68966E-06	10337
5.69265E-06	10223.2
5.69465E-06	10125.4
5.69698E-06	10008.9
5.69865E-06	9906.47
5.70131E-06	9740.48
5.70264E-06	9642.66
5.70643E-06	9361.53
5.70714E-06	9301.83
5.71155E-06	8926
5.71263E-06	8826.38
5.71497E-06	8610.16
5.71813E-06	8296.79
5.72246E-06	7865.31
5.72620E-06	7474.02
5.74036E-06	5990.59
5.74494E-06	5530.21
5.74660E-06	5363.34
5.75118E-06	4929.35
5.75284E-06	4772.2
5.75763E-06	4348.81
5.75784E-06	4330.49
5.76200E-06	3988.27
5.76283E-06	3920.12
5.76637E-06	3649.32
5.76658E-06	3633.47
5.77074E-06	3337.24
5.77095E-06	3322.51
5.77511E-06	3050.09
5.77532E-06	3036.54
5.77844E-06	2849.49
5.77969E-06	2775.04
5.78219E-06	2638.61
5.78406E-06	2536.85
5.78594E-06	2442.52
5.78698E-06	2390.41
5.78968E-06	2263.1
5.78989E-06	2253.37
5.79322E-06	2107.82
5.79343E-06	2099.37
5.79655E-06	1973.38
5.79717E-06	1949.99
5.79988E-06	1849.29
5.80092E-06	1813.37
5.80321E-06	1734.85
5.80467E-06	1688.54
5.80654E-06	1629.4
5.80862E-06	1568.51
5.80987E-06	1532.23
5.81278E-06	1453.82
5.81320E-06	1442.7
5.81653E-06	1360.26
5.81695E-06	1350.8
5.82069E-06	1266.25
5.82111E-06	1257.7
5.82485E-06	1181.3
5.82527E-06	1173.56
5.82902E-06	1104.43
5.82943E-06	1097.42
5.83318E-06	1034.78
5.83360E-06	1028.42
5.83734E-06	971.558
5.83776E-06	965.769
5.84150E-06	914.106
5.84317E-06	893.03
5.84567E-06	861.689
5.84817E-06	832.866
5.84983E-06	813.804
5.85316E-06	778.635
5.85389E-06	771
5.85795E-06	731.646
5.85815E-06	729.796
5.86315E-06	685.759
5.86336E-06	683.939
5.86877E-06	641.014
5.86981E-06	633.494
5.87418E-06	602.219
5.87647E-06	587.246
5.87959E-06	567.02
5.88313E-06	546.005
5.88500E-06	534.978
5.88979E-06	509.068
5.89041E-06	505.719
5.89645E-06	476.004
5.89728E-06	472.262
5.90311E-06	446.335
5.90561E-06	436.202
5.90977E-06	419.485
5.91393E-06	404.19
5.91643E-06	395.101
5.92226E-06	375.638
5.92309E-06	372.883
5.92975E-06	352.597
5.93058E-06	350.256
5.93641E-06	334.019
5.93891E-06	327.577
5.94307E-06	316.937
5.94723E-06	307.111
5.95056E-06	299.332
5.95889E-06	281.489
5.95972E-06	279.853
5.96721E-06	265.32
5.97221E-06	256.414
5.97554E-06	250.547
5.98386E-06	237.032
5.98469E-06	235.783
5.99219E-06	224.671
5.99718E-06	217.81
6.00051E-06	213.285
6.00884E-06	202.786
6.00967E-06	201.812
6.01800E-06	192.182
6.02216E-06	187.737
6.02798E-06	181.592
6.03797E-06	171.879
6.03964E-06	170.382
6.04797E-06	162.992
6.05296E-06	158.882
6.05795E-06	154.824
6.06794E-06	147.287
6.07294E-06	143.778
6.07794E-06	140.322
6.09292E-06	130.812
6.10582E-06	123.461
6.11290E-06	119.752
6.11873E-06	116.74
6.13163E-06	110.589
6.13288E-06	110.039
6.14454E-06	104.971
6.15328E-06	101.448
6.15744E-06	99.792
6.17034E-06	95.0246
6.17367E-06	93.8788
6.18325E-06	90.6274
6.19407E-06	87.1984
6.19615E-06	86.5488
6.21072E-06	82.3181
6.22466E-06	78.5569
6.22529E-06	78.3914
6.23986E-06	74.7995
6.25442E-06	71.4497
6.25526E-06	71.2736
6.27628E-06	66.9072
6.28585E-06	65.1033
6.29813E-06	62.8286
6.31270E-06	60.3351
6.31686E-06	59.6702
6.33143E-06	57.3761
6.33768E-06	56.4648
6.35016E-06	54.6709
6.36889E-06	52.1721
6.37930E-06	50.8792
6.38763E-06	49.8662
6.40636E-06	47.7406
6.42093E-06	46.2196
6.43445E-06	44.8353
6.46255E-06	42.2271
6.48534E-06	40.3222
6.50814E-06	38.5519
6.53093E-06	36.9368
6.55373E-06	35.4295
6.57652E-06	34.0482
6.59931E-06	32.7746
6.61071E-06	32.1524
6.64490E-06	30.4542
6.66834E-06	29.3901
6.68006E-06	28.8726
6.71521E-06	27.4521
6.73865E-06	26.5819
6.75037E-06	26.1585
6.78552E-06	24.9893
6.80896E-06	24.2689
6.82068E-06	23.9181
6.85649E-06	22.9262
6.88059E-06	22.3072
6.89264E-06	22.0067
6.92879E-06	21.1698
6.96494E-06	20.3901
6.97699E-06	20.1471
7.00108E-06	19.6777
7.04996E-06	18.7972
7.07474E-06	18.3874
7.09952E-06	17.9911
7.14907E-06	17.2624
7.17385E-06	16.9259
7.19863E-06	16.6002
7.24889E-06	15.9891
7.27436E-06	15.7017
7.29984E-06	15.4253
7.35080E-06	14.912
7.40175E-06	14.4337
7.42723E-06	14.2104
7.45342E-06	13.9913
7.50582E-06	13.5824
7.55821E-06	13.1985
7.58441E-06	13.0178
7.61060E-06	12.8451
7.66373E-06	12.5156
7.71760E-06	12.201
7.74454E-06	12.0543
7.79841E-06	11.7759
7.87998E-06	11.3884
7.96306E-06	11.0238
8.04615E-06	10.7053
8.13080E-06	10.4041
8.18775E-06	10.2152
8.21623E-06	10.1259
8.30166E-06	9.8761
8.38950E-06	9.63574
8.41878E-06	9.5605
8.47734E-06	9.41817
8.56601E-06	9.21573
8.65633E-06	9.02139
8.77676E-06	8.79449
8.90058E-06	8.57792
9.02441E-06	8.37606
9.15173E-06	8.19641
9.27905E-06	8.02795
9.40996E-06	7.86497
9.54087E-06	7.7224
9.67547E-06	7.58398
9.81008E-06	7.45292
9.94848E-06	7.33502
1.00869E-05	7.22294
1.02292E-05	7.11314
1.03715E-05	7.00938
1.04447E-05	6.96093
1.06641E-05	6.82528
1.08898E-05	6.69451
1.11197E-05	6.56896
1.13540E-05	6.46005
1.15926E-05	6.35533
1.18379E-05	6.25354
1.20878E-05	6.15525
1.23425E-05	6.06858
1.26018E-05	5.98533
1.28685E-05	5.90492
1.31400E-05	5.82853
1.34181E-05	5.75622
1.36061E-05	5.71105
1.37967E-05	5.66871
1.39900E-05	5.62968
1.41860E-05	5.59467
1.43847E-05	5.5645
1.44829E-05	5.55258
1.45359E-05	5.5446
1.46870E-05	5.52638
1.48424E-05	5.51329
1.49978E-05	5.50706
1.51014E-05	5.50736
1.51017E-05	5.50737
1.52080E-05	5.50777
1.53145E-05	5.51364
1.54210E-05	5.52602
1.55275E-05	5.54611
1.55278E-05	5.54618
1.56097E-05	5.56337
1.56918E-05	5.58706
1.57740E-05	5.61834
1.58531E-05	5.65709
1.58561E-05	5.65835
1.59383E-05	5.70269
1.60182E-05	5.75815
1.60707E-05	5.80236
1.61232E-05	5.85367
1.61758E-05	5.91316
1.61808E-05	5.91984
1.62283E-05	5.97762
1.62808E-05	6.0527
1.63333E-05	6.14063
1.63517E-05	6.17659
1.63858E-05	6.24009
1.64243E-05	6.32253
1.64627E-05	6.41566
1.65011E-05	6.52095
1.65225E-05	6.58716
1.65396E-05	6.63779
1.65780E-05	6.76766
1.66165E-05	6.91592
1.66549E-05	7.0855
1.66763E-05	7.19352
1.66933E-05	7.2772
1.67318E-05	7.49459
1.67574E-05	7.65827
1.67830E-05	7.83912
1.67916E-05	7.90587
1.68086E-05	8.03594
1.68343E-05	8.25304
1.68599E-05	8.49518
1.68855E-05	8.76592
1.69079E-05	9.02956
1.69154E-05	9.1284
1.69368E-05	9.4057
1.69560E-05	9.68549
1.69752E-05	9.99287
1.69944E-05	10.3313
1.70008E-05	10.4558
1.70136E-05	10.7016
1.70329E-05	11.11
1.70521E-05	11.5639
1.70745E-05	12.1595
1.70862E-05	12.5073
1.70895E-05	12.6012
1.71044E-05	13.0813
1.71193E-05	13.608
1.71343E-05	14.1875
1.71492E-05	14.8269
1.71503E-05	14.8774
1.71642E-05	15.5307
1.71776E-05	16.2305
1.71896E-05	16.9125
1.72016E-05	17.6584
1.72135E-05	18.4764
1.72255E-05	19.3762
1.72297E-05	19.7309
1.72374E-05	20.3688
1.72494E-05	21.4681
1.72614E-05	22.6909
1.72720E-05	23.9034
1.72814E-05	25.0787
1.72908E-05	26.3702
1.73002E-05	27.7949
1.73049E-05	28.584
1.73096E-05	29.3755
1.73190E-05	31.1369
1.73284E-05	33.1067
1.73305E-05	33.6026
1.73355E-05	34.7467
1.73425E-05	36.545
1.73476E-05	37.9896
1.73502E-05	38.7137
1.73562E-05	40.5957
1.73579E-05	41.135
1.73656E-05	43.8495
1.73690E-05	45.1851
1.73713E-05	46.1069
1.73771E-05	48.5824
1.73818E-05	50.7951
1.73829E-05	51.2999
1.73886E-05	54.2968
1.73903E-05	55.2754
1.73944E-05	57.6074
1.73989E-05	60.4535
1.74002E-05	61.2693
1.74040E-05	63.9303
1.74053E-05	64.8984
1.74100E-05	68.4582
1.74117E-05	69.8799
1.74145E-05	72.197
1.74181E-05	75.4833
1.74189E-05	76.2591
1.74234E-05	80.6783
1.74245E-05	81.8204
1.74279E-05	85.4863
1.74296E-05	87.4763
1.74324E-05	90.7188
1.74347E-05	93.6976
1.74369E-05	96.4132
1.74399E-05	100.54
1.74414E-05	102.609
1.74450E-05	108.061
1.74459E-05	109.348
1.74501E-05	116.324
1.74503E-05	116.674
1.74544E-05	123.848
1.74552E-05	125.487
1.74595E-05	133.704
1.74604E-05	135.501
1.74646E-05	144.512
1.74655E-05	146.479
1.74698E-05	156.344
1.74706E-05	158.494
1.74749E-05	169.271
1.74757E-05	171.614
1.74800E-05	183.363
1.74809E-05	185.911
1.74847E-05	197.404
1.74851E-05	198.684
1.74890E-05	211.138
1.74903E-05	215.299
1.74933E-05	225.718
1.74948E-05	230.939
1.74975E-05	241.36
1.75005E-05	252.609
1.75018E-05	257.815
1.75061E-05	275.208
1.75063E-05	276.079
1.75103E-05	293.879
1.75121E-05	301.389
1.75146E-05	313.438
1.75178E-05	328.531
1.75189E-05	333.884
1.75232E-05	355.335
1.75236E-05	357.485
1.75296E-05	389.488
1.75304E-05	394.072
1.75360E-05	425.657
1.75372E-05	432.963
1.75424E-05	463.667
1.75441E-05	473.925
1.75488E-05	503.612
1.75560E-05	549.589
1.75637E-05	600.167
1.75753E-05	676.175
1.75800E-05	707.172
1.75923E-05	785.19
1.75970E-05	812.558
1.76000E-05	829.94
1.76064E-05	863.925
1.76075E-05	869.797
1.76149E-05	904.143
1.76153E-05	905.844
1.76220E-05	932.22
1.76240E-05	938.797
1.76288E-05	954.015
1.76322E-05	962.154
1.76356E-05	970.201
1.76384E-05	974.327
1.76425E-05	980.406
1.76452E-05	982.008
1.76497E-05	984.47
1.76529E-05	983.552
1.76555E-05	982.724
1.76596E-05	978.092
1.76623E-05	974.917
1.76664E-05	966.835
1.76684E-05	962.746
1.76695E-05	959.992
1.76739E-05	947.962
1.76756E-05	942.162
1.76807E-05	924.609
1.76826E-05	916.826
1.76880E-05	894.365
1.76905E-05	882.38
1.76957E-05	857.005
1.76987E-05	840.705
1.77038E-05	812.614
1.77072E-05	792.277
1.77124E-05	761.64
1.77166E-05	734.368
1.77269E-05	668.697
1.77284E-05	659.095
1.77405E-05	580.025
1.77474E-05	535.596
1.77563E-05	479.866
1.77619E-05	446.88
1.77627E-05	441.814
1.77696E-05	403.199
1.77747E-05	375.885
1.77764E-05	366.801
1.77833E-05	332.81
1.77833E-05	332.81
1.77888E-05	307.044
1.77918E-05	294.11
1.77952E-05	279.372
1.78003E-05	258.982
1.78016E-05	253.901
1.78059E-05	238.132
1.78080E-05	230.705
1.78102E-05	223.303
1.78144E-05	209.386
1.78157E-05	205.468
1.78187E-05	196.361
1.78234E-05	183.002
1.78285E-05	169.569
1.78311E-05	163.386
1.78336E-05	157.231
1.78388E-05	145.921
1.78439E-05	135.593
1.78456E-05	132.439
1.78490E-05	126.163
1.78541E-05	117.548
1.78541E-05	117.548
1.78593E-05	109.718
1.78627E-05	104.911
1.78635E-05	103.717
1.78687E-05	97.1201
1.78712E-05	94.1066
1.78738E-05	91.1118
1.78789E-05	85.6395
1.78798E-05	84.8055
1.78840E-05	80.6629
1.78883E-05	76.8733
1.78892E-05	76.1202
1.78943E-05	71.983
1.78969E-05	70.0866
1.78994E-05	68.2051
1.79045E-05	64.752
1.79097E-05	61.5772
1.79148E-05	58.6822
1.79208E-05	55.5871
1.79225E-05	54.7824
1.79272E-05	52.5914
1.79336E-05	49.8752
1.79353E-05	49.2143
1.79400E-05	47.4118
1.79438E-05	46.0624
1.79464E-05	45.1706
1.79528E-05	43.1252
1.79592E-05	41.242
1.79609E-05	40.784
1.79677E-05	38.974
1.79763E-05	36.9297
1.79780E-05	36.5584
1.79848E-05	35.0905
1.79932E-05	33.4574
1.79959E-05	32.9578
1.80015E-05	31.97
1.80070E-05	31.0484
1.80139E-05	30.0005
1.80181E-05	29.3535
1.80292E-05	27.8349
1.80378E-05	26.7746
1.80404E-05	26.4608
1.80515E-05	25.2219
1.80617E-05	24.1755
1.80626E-05	24.0895
1.80737E-05	23.0638
1.80869E-05	21.9459
1.80912E-05	21.6175
1.81001E-05	20.9395
1.81134E-05	20.0252
1.81262E-05	19.2137
1.81266E-05	19.1871
1.81399E-05	18.4295
1.81531E-05	17.7307
1.81612E-05	17.3344
1.81663E-05	17.0892
1.81844E-05	16.2998
1.81988E-05	15.7232
1.82138E-05	15.1756
1.82180E-05	15.0226
1.82372E-05	14.3987
1.82565E-05	13.831
1.82565E-05	13.831
1.82757E-05	13.3247
1.82949E-05	12.8613
1.83141E-05	12.4358
1.83205E-05	12.3052
1.83333E-05	12.0511
1.83588E-05	11.5925
1.83842E-05	11.1793
1.83846E-05	11.1733
1.84096E-05	10.8159
1.84350E-05	10.4876
1.84515E-05	10.2944
1.84604E-05	10.193
1.84813E-05	9.9763
1.85061E-05	9.74141
1.85185E-05	9.63533
1.85309E-05	9.53233
1.85557E-05	9.34766
1.85805E-05	9.18341
1.86053E-05	9.03918
1.86127E-05	9.00198
1.86301E-05	8.91853
1.86548E-05	8.82038
1.86805E-05	8.74285
1.87003E-05	8.70141
1.87069E-05	8.69159
1.87276E-05	8.67532
1.87499E-05	8.68614
1.87647E-05	8.71326
1.87796E-05	8.75993
1.87945E-05	8.83054
1.88057E-05	8.90278
1.88168E-05	8.99528
1.88259E-05	9.09075
1.88280E-05	9.11201
1.88391E-05	9.25717
1.88472E-05	9.38502
1.88552E-05	9.53598
1.88633E-05	9.71418
1.88713E-05	9.92449
1.88794E-05	10.1727
1.88875E-05	10.4654
1.88928E-05	10.6892
1.88982E-05	10.9387
1.89036E-05	11.2168
1.89089E-05	11.5265
1.89143E-05	11.871
1.89185E-05	12.1654
1.89197E-05	12.2536
1.89251E-05	12.6776
1.89300E-05	13.1093
1.89350E-05	13.5828
1.89399E-05	14.1013
1.89449E-05	14.6677
1.89499E-05	15.2851
1.89548E-05	15.9565
1.89598E-05	16.6847
1.89647E-05	17.4723
1.89697E-05	18.3215
1.89746E-05	19.2345
1.89746E-05	19.2345
1.89800E-05	20.3005
1.89862E-05	21.6272
1.89924E-05	23.0579
1.89986E-05	24.5914
1.90048E-05	26.2246
1.90077E-05	27.0309
1.90110E-05	27.955
1.90184E-05	30.1481
