E(MeV)	mcnp/Mn55:1
1E-11	692.5354921
1.15436E-11	644.5931268
1.30872E-11	605.4031714
1.61743E-11	544.5980643
1.92615E-11	499.0764136
2.23486E-11	463.3503479
2.54358E-11	434.3463661
2.85229E-11	410.1901837
3.46973E-11	371.9478444
4.08716E-11	342.7413129
4.70459E-11	319.4967881
5.32202E-11	300.4256925
5.93945E-11	284.4120539
7.17431E-11	258.8348378
8.40918E-11	239.1258566
9.64404E-11	223.3389838
1.08789E-10	210.3258923
1.33486E-10	189.9548906
1.58184E-10	174.5708384
1.82881E-10	162.4244777
2.07578E-10	152.5199833
2.56973E-10	137.1931025
3.06367E-10	125.7486887
3.55762E-10	116.7840964
4.05156E-10	109.5167873
5.03945E-10	98.34017708
6.02734E-10	90.04526705
7.01523E-10	83.57589138
8.00313E-10	78.34879289
9.97891E-10	70.33904676
1.19547E-09	64.41588917
1.39305E-09	59.80731767
1.59063E-09	56.08938263
1.98578E-09	50.39906287
2.38094E-09	46.1946634
2.77609E-09	42.9253918
3.17125E-09	40.28973093
3.96156E-09	36.26015113
4.75188E-09	33.28630353
5.54219E-09	30.97523562
6.3325E-09	29.11223508
7.91313E-09	26.2632448
9.49375E-09	24.16066298
1.10744E-08	22.52779726
1.2655E-08	21.21224175
1.58163E-08	19.19875742
1.89775E-08	17.71022538
2.21388E-08	16.55565686
2.53E-08	15.62777402
3.1402E-08	14.24860006
3.75039E-08	13.21665106
4.36059E-08	12.41268749
4.97079E-08	11.76704875
6.19118E-08	10.77070418
7.41157E-08	10.025036
8.63196E-08	9.446007861
9.85236E-08	8.984756549
1.22931E-07	8.272798853
1.47339E-07	7.740170919
1.71747E-07	7.326831213
1.96155E-07	6.994156929
2.20563E-07	6.722152787
2.69379E-07	6.290859031
3.18194E-07	5.960029108
3.6701E-07	5.698255794
4.15826E-07	5.486645784
5.13457E-07	5.156506063
6.11089E-07	4.90730651
7.0872E-07	4.712067965
8.06352E-07	4.554962465
1.00161E-06	4.3123704
1.19688E-06	4.131209553
1.39214E-06	3.990149477
1.5874E-06	3.876958479
1.97793E-06	3.703466644
2.36846E-06	3.575056794
2.75898E-06	3.475686431
3.14951E-06	3.3963009
3.93056E-06	3.275771614
4.71161E-06	3.187763128
5.49266E-06	3.120540239
6.27372E-06	3.067550041
7.83582E-06	2.989018792
9.39792E-06	2.933878001
1.096E-05	2.893682278
1.25221E-05	2.863755194
1.56463E-05	2.824037133
1.87706E-05	2.801836361
2.18948E-05	2.791183376
2.5019E-05	2.788824851
3.12674E-05	2.801720776
3.75158E-05	2.831937296
4.37642E-05	2.875814568
5.00127E-05	2.931736845
6.25095E-05	3.077391652
7.50063E-05	3.269701656
8.75032E-05	3.515016471
0.0001	3.823812795
0.000114134	4.268424464
0.000128269	4.843608339
0.000142403	5.591993532
0.00014947	6.049571366
0.000156538	6.576596353
0.000163605	7.185100754
0.000170672	7.890546081
0.000177739	8.712059802
0.000184806	9.673547249
0.000191873	10.80514412
0.000198941	12.14521951
0.000206008	13.74316172
0.000213075	15.6633131
0.000220142	17.9905874
0.000227209	20.83888243
0.000234277	24.36325695
0.000241344	28.76962691
0.000244877	31.3927407
0.000248411	34.368695
0.000251945	37.75049777
0.000255478	41.61119951
0.000259012	46.04059535
0.000262545	51.14996443
0.000266079	57.07842726
0.000269613	64.00157334
0.000273146	72.14307804
0.00027668	81.7921832
0.000280213	93.32571521
0.000283747	107.2425865
0.00028728	124.212741
0.000290814	145.1503895
0.000294348	171.2042915
0.000296114	186.6656706
0.000297881	204.2461405
0.000299648	224.2068625
0.000301415	246.9728151
0.000303182	273.0630958
0.000304948	303.1154018
0.000306715	337.9176184
0.000308482	378.4485556
0.000310249	425.9303395
0.000312016	481.8952683
0.000313782	548.2697485
0.000315549	627.476402
0.000317316	722.5508036
0.000319083	837.2579094
0.00032085	976.167919
0.000322616	1144.599265
0.000324383	1348.238052
0.00032615	1591.539142
0.000327544	1813.330948
0.000328938	2060.531223
0.000333119	2854.418558
0.000334513	3072.544769
0.000335906	3221.215684
0.0003373	3279.586589
0.000338694	3239.570739
0.000340088	3109.746227
0.000341481	2910.520033
0.000345663	2166.922752
0.000347056	1931.541094
0.00034845	1717.591892
0.000349901	1520.126584
0.000351351	1347.708927
0.000352802	1198.380459
0.000354252	1069.49805
0.000355703	958.3336815
0.000357154	862.3333467
0.000358604	779.2251566
0.000360055	707.0460352
0.000361505	644.1280851
0.000362956	589.0676532
0.000364407	540.6892665
0.000365857	498.0104246
0.000367308	460.2113305
0.000368758	426.8513171
0.00037166	370.1793779
0.000374561	324.1529154
0.000377462	286.5029525
0.000380363	255.3395447
0.000383264	229.2664539
0.000386165	207.2383195
0.000389067	188.4618148
0.000391968	172.3271652
0.000394869	158.360069
0.00039777	146.1878912
0.000400671	135.5133796
0.000403573	126.0991679
0.000406474	117.786148
0.000412276	103.7215191
0.000418079	92.33319173
0.000423881	83.00171675
0.000429683	75.25389269
0.000435486	68.74617505
0.000441288	63.22385024
0.00044709	58.49495898
0.000452893	54.41230973
0.000458695	50.86184327
0.000464498	47.75382367
0.0004703	45.01694086
0.000476102	42.5990721
0.000487707	38.52051
0.000499312	35.23227455
0.000510917	32.54768008
0.000522521	30.3296008
0.000534126	28.47863238
0.000545731	26.92134727
0.000557336	25.60243441
0.00056894	24.47965627
0.000580545	23.52174101
0.000603755	21.99678507
0.000626964	20.877407
0.000650174	20.06941043
0.000673383	19.50927658
0.000696593	19.15497465
0.000719802	18.97942126
0.000743012	18.9667098
0.000766221	19.11011692
0.000789431	19.41142107
0.00081264	19.88141521
0.00083585	20.54181208
0.000859059	21.42916324
0.000882269	22.60216517
0.000905478	24.15273244
0.000917083	25.11446981
0.000928688	26.23871685
0.000940292	27.5618112
0.000951897	29.13581235
0.000963502	31.03340624
0.000975107	33.35343897
0.000980909	34.7165863
0.000986711	36.25396118
0.000992514	37.99406216
0.000998316	39.97819355
0.001004118	42.25926218
0.00100992	44.90660886
0.001015722	48.01203937
0.001021525	51.7003375
0.001027327	56.14168304
0.00103313	61.55390041
0.001036031	64.72367556
0.001038932	68.30432677
0.001041833	72.34870064
0.001044735	76.94839257
0.001047636	82.21379057
0.001050537	88.29138548
0.001053438	95.36875159
0.001056339	103.6921272
0.00105924	113.5899241
0.001062141	125.5077414
0.001065042	139.9479175
0.001066493	148.3670369
0.001067944	157.8623769
0.001069394	168.5345399
0.001070845	180.5967065
0.001072295	194.2847772
0.001073746	209.9296028
0.001075196	227.8970177
0.001076647	248.6968461
0.001078098	272.9283408
0.001079549	301.3650864
0.001080999	334.9657732
0.00108245	375.0271067
0.0010839	423.0773032
0.001085351	481.1638182
0.001086801	551.6081251
0.001088252	637.2367886
0.001089703	740.6222248
0.001091154	863.120631
0.001092134	956.260279
0.001093115	1055.977716
0.001095077	1256.857852
0.001096057	1342.504371
0.001097038	1404.904337
0.001098019	1434.357436
0.001099	1424.670547
0.00109998	1375.322124
0.001100961	1291.802039
0.001101942	1184.374498
0.001104884	822.3711475
0.001105865	713.247779
0.001106846	616.8617148
0.001107921	525.8070481
0.001108997	448.6589563
0.001110072	383.925046
0.001111148	329.7011484
0.001112223	284.3756814
0.001113299	246.3463839
0.001114375	214.3693541
0.001115451	187.3748766
0.001116526	164.5065277
0.001117602	145.0088647
0.001118678	128.3251507
0.001119754	113.9844929
0.001120829	101.6143619
0.001121905	90.87889042
0.001122981	81.53365572
0.001124057	73.36738412
0.001125132	66.21170539
0.001126208	59.90834733
0.001127283	54.34825821
0.001128359	49.42073628
0.001129434	45.05769905
0.00113051	41.1933579
0.001132662	34.63402004
0.001134813	29.31919198
0.001136965	25.00964344
0.001139116	21.49511943
0.001141268	18.60914733
0.001143419	16.22949612
0.00114557	14.25810945
0.001147721	12.61942095
0.001149873	11.2531958
0.001152024	10.11320768
0.001154176	9.160257596
0.001156327	8.364402859
0.001158479	7.699798579
0.00116063	7.146496031
0.001162781	6.687226995
0.001164932	6.308041329
0.001167084	6.001536067
0.001171387	5.550289223
0.00117569	5.26783557
0.001179992	5.116318916
0.001184295	5.063454359
0.001188598	5.085523471
0.001192901	5.166455026
0.001201506	5.447375701
0.001210112	5.831812448
0.001218717	6.278925487
0.001227323	6.762534966
0.001235928	7.266473771
0.001244534	7.781021137
0.001253139	8.300083694
0.001261745	8.820199871
0.001278956	9.856668084
0.001296167	10.88484595
0.001313378	11.90649458
0.001330589	12.92646005
0.0013478	13.9510021
0.001382223	16.03872708
0.001416645	18.2200533
0.001451067	20.54448876
0.001485489	23.06110652
0.001519911	25.81998973
0.001554333	28.8703388
0.001571544	30.5186841
0.001588755	32.25366223
0.00159736	33.15166529
0.001605966	34.06799066
0.001614571	34.99646849
0.001618874	35.46224155
0.001623177	35.92620442
0.001627479	36.38488019
0.00162963	36.61067934
0.001631782	36.8327066
0.001633933	37.04967692
0.001636085	37.26018874
0.001638236	37.46200093
0.001640388	37.65306588
0.001641463	37.74341277
0.001642539	37.82964621
0.001643615	37.91130162
0.001644691	37.98812138
0.001645766	38.06000846
0.001646842	38.1276509
0.00164738	38.16036139
0.001647918	38.19290189
0.001648456	38.22604005
0.001648994	38.26099455
0.001649531	38.29961974
0.001650069	38.34515285
0.001650607	38.40263325
0.001651145	38.48084542
0.001651414	38.5322803
0.001651683	38.59584515
0.001651952	38.67609696
0.001652221	38.77979976
0.00165249	38.91726101
0.001652759	39.10451089
0.001653028	39.366755
0.001653162	39.53693244
0.001653297	39.74360239
0.001653431	39.99208334
0.001653565	40.29403647
0.001653699	40.66201774
0.001653834	41.11493927
0.001653968	41.66445427
0.001654103	42.34075151
0.001654237	43.15928145
0.001654372	44.161917
0.001654506	45.36710255
0.001654641	46.830269
0.001654775	48.57016096
0.00165491	50.656202
0.001655044	53.10200957
0.001655179	55.9890356
0.001655313	59.31707433
0.001655448	63.17448711
0.001655582	67.53552448
0.001655717	72.48707929
0.001655851	77.96456618
0.001655986	84.04268637
0.00165612	90.60599368
0.001656389	105.1695709
0.001656793	129.1615
0.001657196	152.3988857
0.001657331	159.2630891
0.001657532	168.0621384
0.0016577	173.8016956
0.00165795	179.1218896
0.00165805	180.0809095
0.00165835	178.8421258
0.001658515	175.6294937
0.001658687	170.5677822
0.001658975	158.8839766
0.001659435	135.2098863
0.001659665	122.7233598
0.00166001	105.0161789
0.001660125	99.61625409
0.001660355	89.78390351
0.00166047	85.3867168
0.001660585	81.34407715
0.0016607	77.65286093
0.001660815	74.30377222
0.00166093	71.28257299
0.001661045	68.57127708
0.00166116	66.14925656
0.001661275	63.99424036
0.00166139	62.08318023
0.001661505	60.39297672
0.00166162	58.90106378
0.001661735	57.58585989
0.00166185	56.42709232
0.001661965	55.40601298
0.00166208	54.50551697
0.001662195	53.71018678
0.00166231	53.0062716
0.001662425	52.38162335
0.00166254	51.82559634
0.00166277	50.88361883
0.001663	50.12050188
0.00166323	49.49226228
0.00166346	48.96693006
0.00166369	48.52134423
0.00166392	48.13866361
0.00166415	47.80651701
0.00166438	47.51568085
0.00166484	47.03152524
0.0016653	46.64675308
0.00166576	46.33623508
0.00166622	46.08297898
0.00166668	45.87494408
0.00166714	45.70327119
0.0016676	45.56124209
0.00166852	45.34643611
0.00166944	45.20095538
0.00167036	45.10630237
0.00167128	45.0503073
0.0016722	45.02441783
0.001673121	45.02247081
0.001674041	45.03999557
0.001674961	45.07350333
0.001676801	45.17693344
0.001678641	45.3167182
0.001680482	45.48445237
0.001682322	45.67378858
0.001684162	45.8812815
0.001687843	46.33434989
0.001691523	46.8255431
0.001695204	47.34871038
0.001702565	48.46305935
0.001709926	49.64995059
0.001717287	50.90144816
0.001732009	53.57194568
0.001746731	56.46287686
0.001776175	62.92484092
0.001805618	70.40601404
0.001835062	79.09784432
0.001864506	89.24281902
0.00189395	101.1463736
0.001923393	115.1895068
0.001952837	131.8477768
0.001982281	151.707424
0.002011725	175.4846107
0.002041168	204.0319184
0.002070612	238.3242984
0.002100056	279.3768492
0.0021295	328.0448366
0.002154187	374.9969251
0.002178875	427.164501
0.00222825	539.9665041
0.002252937	593.3091348
0.002277625	637.3657662
0.002302312	666.1683906
0.002327	675.3844486
0.002351687	663.8904719
0.002376375	634.1697976
0.002401062	591.2319667
0.002475125	437.1520463
0.002499812	389.5037917
0.0025245	346.4726634
0.002547554	310.7078175
0.002570608	279.0778503
0.002593662	251.2607871
0.002616716	226.8637745
0.00263977	205.4805062
0.002662824	186.7243364
0.002685878	170.243879
0.002708932	155.7284197
0.002731986	142.9077765
0.00275504	131.5494007
0.002778094	121.4543283
0.002801148	112.4645178
0.002847256	97.19459037
0.002893365	84.80919403
0.002939473	74.65272766
0.002985581	66.23009184
0.003031689	59.17266925
0.003077798	53.20249935
0.003123906	48.10794735
0.003170014	43.7254239
0.003216122	39.92746054
0.003262231	36.61354722
0.003308339	33.70390381
0.003354447	31.136171
0.003446663	26.82001254
0.003538879	23.35028746
0.003631096	20.51515907
0.003723312	18.16399988
0.003815529	16.18890946
0.003953853	13.7610484
0.003988434	13.23391205
0.003994198	13.14972986
0.003995639	13.13350245
0.00399708	13.12891103
0.003998521	13.13613815
0.003999962	13.13170315
0.004000038	13.1305986
0.004001216	13.10182207
0.004002395	13.0613089
0.004003573	13.02526524
0.004004752	12.9990238
0.004007109	12.96155294
0.004009467	12.92798802
0.004075473	12.02914027
0.004226343	10.26722219
0.00427349	9.786243986
0.00428292	9.693742817
0.004292349	9.603666275
0.004294706	9.583405313
0.004295885	9.577544314
0.004297064	9.584094431
0.004297653	9.597261586
0.004298242	9.620409498
0.004298831	9.65504457
0.004299421	9.700350918
0.0043006	9.801478646
0.004301336	9.84583647
0.004301944	9.8565498
0.004302221	9.852115005
0.004302686	9.831758863
0.004303152	9.797311005
0.004303463	9.768483396
0.004304706	9.638210327
0.004305327	9.581236486
0.004305948	9.536614202
0.004306569	9.504409514
0.004307191	9.48224837
0.004308433	9.456285594
0.004309676	9.440552311
0.004312162	9.415099161
0.004322103	9.320846066
0.004332044	9.229097155
0.00438175	8.787358309
0.004461279	8.13367626
0.004620338	6.992226296
0.004699867	6.49166852
0.004739632	6.256967786
0.004779397	6.032194388
0.004819161	5.817483776
0.004839043	5.714377753
0.004858926	5.615090039
0.004868867	5.567583151
0.004878808	5.522370375
0.004888749	5.480839466
0.004898691	5.446811553
0.004903661	5.435495292
0.004908632	5.431049218
0.004913602	5.440005016
0.004916087	5.453782663
0.004918573	5.477992159
0.004921058	5.518908038
0.0049223	5.549337499
0.004924785	5.64473065
0.004926028	5.720466422
0.004927271	5.828488937
0.004928514	5.991000266
0.004929135	6.106415041
0.004929756	6.259491085
0.004930377	6.472046921
0.004930999	6.783975406
0.00493162	7.264436597
0.004931931	7.603559315
0.004932242	8.035331147
0.004932552	8.584247878
0.004932863	9.285799293
0.004933174	10.17598312
0.004933485	11.2972718
0.004933795	12.69061678
0.004934106	14.41186044
0.004934416	16.49412431
0.004934727	18.98818191
0.004935037	21.90275262
0.004935348	25.26311793
0.004935814	31.06982075
0.00493628	37.62525248
0.004937057	49.19884661
0.004937678	57.57644493
0.004938067	61.71797004
0.004938524	64.97915942
0.004939	66.17144021
0.004939476	64.97179889
0.004939967	61.38775604
0.004940391	56.71823946
0.004940901	49.79092197
0.004941749	37.18352516
0.004942259	30.0877167
0.004942428	27.92924835
0.004942767	23.9540742
0.004942937	22.15068321
0.004943276	18.94463349
0.004943446	17.53056139
0.004943616	16.24163853
0.004943785	15.07947435
0.004943955	14.0243665
0.004944295	12.22942366
0.004944634	10.80860294
0.004944974	9.692558805
0.004945313	8.830035917
0.004945652	8.165616559
0.004945991	7.655084641
0.004946331	7.261067834
0.00494667	6.956895629
0.00494701	6.718260385
0.004947689	6.3772105
0.004948367	6.149022509
0.004949046	5.985679264
0.004950404	5.765991374
0.004951761	5.623782792
0.004953119	5.523749219
0.004954476	5.449622417
0.004955834	5.392457313
0.004958549	5.310139392
0.004961264	5.252836291
0.004963979	5.209487907
0.004966694	5.174941371
0.004972124	5.1216173
0.004977554	5.079702855
0.004982985	5.043670694
0.004988415	5.011350517
0.004993845	4.981458166
0.005004706	4.925806045
0.005015566	4.873444631
0.005026427	4.82315511
0.005048148	4.726519852
0.005069869	4.633500614
0.005113311	4.455176286
0.005156753	4.285610505
0.005200195	4.124190322
0.005287079	3.824463584
0.005373962	3.555312155
0.005460846	3.317737854
0.00554773	3.114077651
0.005634614	2.948368315
0.005721497	2.826893485
0.005808381	2.759031887
0.005895265	2.758591557
0.005982149	2.845514452
0.00602559	2.930588117
0.006069032	3.050194269
0.006112474	3.210267346
0.006155916	3.418522957
0.006199358	3.684633523
0.0062428	4.020414074
0.006264521	4.219079004
0.006286242	4.442965865
0.006297102	4.566639524
0.006302532	4.63283323
0.006307963	4.70383896
0.006313393	4.783991564
0.006316108	4.832435623
0.006318823	4.897360558
0.00632018	4.948522302
0.006320859	4.987874725
0.006321538	5.047231004
0.006322216	5.143462002
0.006322895	5.306037771
0.006323234	5.425476643
0.006323574	5.580326695
0.006323913	5.778040491
0.006324253	6.028924339
0.006324592	6.340882453
0.006324931	6.723528969
0.00632527	7.1845465
0.00632561	7.731032024
0.006325949	8.361676713
0.006326289	9.077502237
0.006326628	9.866052455
0.006326968	10.71747462
0.006327986	13.39192444
0.006328495	14.60401039
0.006329089	15.70569219
0.006329471	16.16321781
0.00633	16.40772534
0.006330276	16.34598305
0.006330525	16.18017058
0.006330874	15.78186163
0.006331153	15.33761086
0.006331572	14.49663628
0.006331992	13.50015317
0.006333109	10.6045778
0.006333668	9.273970433
0.006333947	8.680367284
0.006334227	8.139889676
0.006334506	7.659028356
0.006334786	7.234632128
0.006335065	6.868092134
0.006335344	6.554657374
0.006335623	6.290131779
0.006335903	6.068937975
0.006336462	5.739177459
0.006337021	5.524759455
0.006337579	5.390566789
0.006338138	5.308735344
0.006339256	5.231559792
0.006340373	5.206103838
0.006341491	5.199729413
0.006343726	5.207634495
0.006348196	5.251428803
0.006352666	5.308569997
0.006357136	5.371905014
0.006361606	5.438921494
0.006375016	5.655031499
0.006383956	5.809418177
0.006401837	6.142192734
0.006437597	6.907091676
0.006473358	7.828550629
0.006509118	8.942817518
0.006544879	10.29581485
0.006580639	11.94672982
0.0066164	13.97271221
0.00665216	16.47447675
0.006687921	19.57855342
0.006705801	21.40813123
0.006723681	23.46394093
0.006741561	25.77170988
0.006759442	28.36647496
0.006777322	31.28760299
0.006795202	34.57998741
0.006813082	38.29360921
0.006830963	42.48367293
0.006848843	47.20877589
0.006866724	52.53075791
0.006884604	58.50921403
0.006902485	65.21154911
0.006931151	77.50029977
0.006945484	84.34950749
0.006949067	86.1354069
0.006950859	87.04344149
0.006952651	87.97376712
0.006953546	88.46073476
0.006954442	88.97783755
0.006955338	89.53774117
0.006956234	90.14786169
0.006958474	91.78664295
0.006959146	92.23934579
0.00695965	92.54527681
0.00696	92.73785176
0.006960251	92.86551836
0.006960873	93.14563319
0.006961289	93.30736424
0.006961843	93.4987994
0.006963505	94.02149766
0.006964059	94.2125056
0.006964613	94.42177008
0.006965167	94.65040616
0.006965721	94.89714953
0.006966829	95.43368858
0.006967937	96.0070772
0.006969045	96.59877568
0.006971261	97.80287131
0.006977909	101.4606138
0.007031091	131.2752812
0.007048818	140.2329841
0.007066545	147.8344595
0.007084272	153.5856335
0.007102	157.0691945
0.007126939	157.8544212
0.007151878	154.0678526
0.007176817	146.5841334
0.007201757	136.6592341
0.007251636	114.2060158
0.007276575	103.3149937
0.007301515	93.22468144
0.007322263	85.56673937
0.007343012	78.60594185
0.007363761	72.32001325
0.00738451	66.66730198
0.007405258	61.5956499
0.007426007	57.04871091
0.007446756	52.97174983
0.007467505	49.32143849
0.007509002	43.08103047
0.0075505	37.99788861
0.007591998	33.83248102
0.007633496	30.39334832
0.007674993	27.5351842
0.007716491	25.14767117
0.007757988	23.14745445
0.007799486	21.47134479
0.007840983	20.07210186
0.007882481	18.91482022
0.007923979	17.97491203
0.007965477	17.23649611
0.008006974	16.6916377
0.008048472	16.34008983
0.008089969	16.18976192
0.008131467	16.25771276
0.008172964	16.57206875
0.008214462	17.17503885
0.00825596	18.12742578
0.008297458	19.51543591
0.008338955	21.46068391
0.008380453	24.12765871
0.008401202	25.80330288
0.008421951	27.76522734
0.0084427	30.05461132
0.008463449	32.72729127
0.008484197	35.84953691
0.008504946	39.50031977
0.008525695	43.7719426
0.008546444	48.77164365
0.008567193	54.62129386
0.008587942	61.45487831
