E(MeV)	Mo-nat
1.000000E-11	162.742
1.102400E-11	155.034
1.215040E-11	147.71
1.339460E-11	140.722
1.476330E-11	134.081
1.627500E-11	127.745
1.793810E-11	121.724
1.977490E-11	115.98
2.179560E-11	110.522
2.402740E-11	105.315
2.648260E-11	100.369
2.919430E-11	95.6504
3.217750E-11	91.168
3.547230E-11	86.893
3.909700E-11	82.8321
4.310050E-11	78.9596
4.750460E-11	75.2817
5.236900E-11	71.7749
5.772020E-11	68.4449
6.363060E-11	65.2703
7.013260E-11	62.2564
7.731390E-11	59.3839
8.521420E-11	56.6572
9.393980E-11	54.0591
1.035390E-10	51.5981
1.050000E-10	51.2662
1.141410E-10	49.2521
1.173620E-10	48.6237
1.258040E-10	47.0251
1.311790E-10	46.1247
1.386860E-10	44.9032
1.466230E-10	43.7614
1.528580E-10	42.8896
1.638860E-10	41.5274
1.685100E-10	40.9719
1.831810E-10	39.4159
1.857290E-10	39.1529
2.047470E-10	37.4212
2.256690E-10	35.7858
2.288530E-10	35.5659
2.487770E-10	34.2289
2.557960E-10	33.813
2.741980E-10	32.7547
2.898900E-10	31.9588
3.022750E-10	31.3492
3.285910E-10	30.2083
3.331620E-10	30.0158
3.672770E-10	28.7513
3.723870E-10	28.5843
4.048070E-10	27.5567
4.221010E-10	27.074
4.462580E-10	26.4198
4.851090E-10	25.4948
4.918580E-10	25.3388
5.422230E-10	24.3169
5.575220E-10	24.0438
5.976290E-10	23.3505
6.496590E-10	22.5609
6.588240E-10	22.4259
7.261450E-10	21.5572
7.571680E-10	21.2058
8.005010E-10	20.7302
8.822990E-10	19.9436
8.947460E-10	19.8386
9.726430E-10	19.2029
1.072030E-09	18.4928
1.181800E-09	17.8283
1.302560E-09	17.1889
1.435940E-09	16.5909
1.582670E-09	16.0162
1.605000E-09	15.9396
1.744740E-09	15.4766
1.923020E-09	14.9612
2.033070E-09	14.6832
2.119930E-09	14.4708
2.336550E-09	14.0094
2.575810E-09	13.565
2.648490E-09	13.4472
2.839010E-09	13.1484
3.129720E-09	12.7518
3.449530E-09	12.3718
3.596900E-09	12.219
3.802750E-09	12.0127
4.191330E-09	11.6743
4.620500E-09	11.3492
5.092640E-09	11.0379
5.164490E-09	10.9966
5.614120E-09	10.747
6.187790E-09	10.4707
6.821400E-09	10.2056
7.518430E-09	9.95206
7.948710E-09	9.81595
8.288300E-09	9.71198
9.135230E-09	9.4873
1.007060E-08	9.2722
1.109970E-08	9.0669
1.223630E-08	8.86997
1.348660E-08	8.68162
1.386720E-08	8.63174
1.486760E-08	8.50472
1.638680E-08	8.33755
1.806480E-08	8.17759
1.991070E-08	8.02498
2.194950E-08	7.87882
2.419240E-08	7.73939
2.508750E-08	7.68891
2.530000E-08	7.67749
2.789060E-08	7.55066
3.074060E-08	7.42994
3.388840E-08	7.3145
3.735120E-08	7.20452
4.117580E-08	7.09929
4.538330E-08	6.99909
5.003050E-08	6.90335
5.514280E-08	6.81219
6.078920E-08	6.72492
6.700090E-08	6.64167
7.386160E-08	6.56196
7.917500E-08	6.50826
8.140900E-08	6.48641
8.974500E-08	6.41593
9.891550E-08	6.34906
1.090440E-07	6.28528
1.201870E-07	6.22464
1.324930E-07	6.16665
1.460320E-07	6.11171
1.609850E-07	6.05904
1.774350E-07	6.00891
1.956040E-07	5.96122
2.155920E-07	5.91583
2.376680E-07	5.87264
2.619540E-07	5.83127
2.887770E-07	5.7921
3.182850E-07	5.75465
3.508770E-07	5.71874
3.867300E-07	5.68479
4.263300E-07	5.65229
4.698940E-07	5.62154
5.180100E-07	5.59178
5.709420E-07	5.56387
6.294050E-07	5.53703
6.842010E-07	5.51479
7.541160E-07	5.49025
8.429000E-07	5.46347
9.292110E-07	5.44112
1.024160E-06	5.41985
1.113320E-06	5.40239
1.227330E-06	5.38267
1.352740E-06	5.36392
1.491250E-06	5.3459
1.512000E-06	5.34357
1.666830E-06	5.32688
1.811940E-06	5.31345
1.969690E-06	5.30053
2.170960E-06	5.28601
2.359960E-06	5.27411
2.601620E-06	5.26075
2.867460E-06	5.24821
3.074330E-06	5.2395
3.341980E-06	5.22927
3.632940E-06	5.21961
3.894280E-06	5.21176
3.947140E-06	5.2109
3.949220E-06	5.21068
4.032410E-06	5.20422
4.060660E-06	5.20174
4.112870E-06	5.19607
4.175230E-06	5.19457
4.731720E-06	5.17948
5.438040E-06	5.16184
5.994880E-06	5.14907
6.607460E-06	5.13667
7.182700E-06	5.12621
7.593760E-06	5.1196
8.028350E-06	5.11331
8.371340E-06	5.10702
8.607550E-06	5.10332
8.850430E-06	5.10031
9.031740E-06	5.09876
9.190460E-06	5.09813
9.384510E-06	5.09836
9.515060E-06	5.09926
9.649300E-06	5.10098
9.783540E-06	5.10369
9.887070E-06	5.10665
9.956080E-06	5.10929
1.002510E-05	5.11283
1.009510E-05	5.11742
1.016600E-05	5.12292
1.023700E-05	5.12917
1.030800E-05	5.13627
1.037990E-05	5.14447
1.045290E-05	5.154
1.052590E-05	5.16496
1.058060E-05	5.1743
1.063530E-05	5.18476
1.069160E-05	5.19686
1.074780E-05	5.21057
1.080410E-05	5.22619
1.086040E-05	5.24409
1.089790E-05	5.25749
1.093540E-05	5.27225
1.097090E-05	5.28766
1.100650E-05	5.30464
1.104200E-05	5.32341
1.107760E-05	5.34422
1.111310E-05	5.36737
1.114870E-05	5.39323
1.118420E-05	5.42226
1.121090E-05	5.44643
1.124470E-05	5.48059
1.126980E-05	5.50861
1.129480E-05	5.53936
1.131980E-05	5.57321
1.134480E-05	5.61059
1.136980E-05	5.65201
1.139480E-05	5.69805
1.141980E-05	5.74945
1.144610E-05	5.81012
1.146360E-05	5.85497
1.148110E-05	5.90381
1.149860E-05	5.95715
1.151610E-05	6.01556
1.153360E-05	6.07969
1.155110E-05	6.15034
1.156670E-05	6.21967
1.158050E-05	6.28618
1.159420E-05	6.35847
1.160800E-05	6.43723
1.162170E-05	6.52327
1.163550E-05	6.61751
1.164920E-05	6.72102
1.166300E-05	6.83508
1.167550E-05	6.94914
1.168680E-05	7.06134
1.169800E-05	7.1837
1.170930E-05	7.31744
1.172050E-05	7.46399
1.173180E-05	7.62497
1.174300E-05	7.80223
1.175430E-05	7.99788
1.176430E-05	8.18917
1.177300E-05	8.37153
1.177490E-05	8.41392
1.178180E-05	8.56948
1.179050E-05	8.78446
1.179930E-05	9.01812
1.180800E-05	9.27225
1.181680E-05	9.54881
1.182550E-05	9.84983
1.183370E-05	10.1532
1.184120E-05	10.4551
1.184870E-05	10.7795
1.185620E-05	11.1278
1.186370E-05	11.5014
1.187120E-05	11.9016
1.188240E-05	12.5545
1.189310E-05	13.2317
1.190240E-05	13.8799
1.191180E-05	14.5764
1.192120E-05	15.3208
1.193370E-05	16.3857
1.194560E-05	17.4682
1.196250E-05	19.1061
1.200650E-05	23.5997
1.202260E-05	25.1506
1.203550E-05	26.2746
1.204670E-05	27.1413
1.205800E-05	27.8756
1.206800E-05	28.4003
1.207800E-05	28.7917
1.208600E-05	28.9909
1.208800E-05	29.0407
1.209900E-05	29.1428
1.210000E-05	29.1431
1.210900E-05	29.0776
1.211900E-05	28.8635
1.212900E-05	28.506
1.213900E-05	28.0137
1.214800E-05	27.4651
1.216000E-05	26.5964
1.217200E-05	25.5964
1.218700E-05	24.2072
1.220900E-05	22.007
1.223690E-05	19.1813
1.225380E-05	17.558
1.226850E-05	16.2395
1.227880E-05	15.3761
1.228910E-05	14.5681
1.229940E-05	13.817
1.230980E-05	13.123
1.232010E-05	12.4848
1.232880E-05	11.9857
1.233760E-05	11.5237
1.234630E-05	11.0969
1.235510E-05	10.7033
1.236380E-05	10.3408
1.237260E-05	10.0072
1.238130E-05	9.70023
1.239010E-05	9.41791
1.240010E-05	9.12282
1.241010E-05	8.85442
1.242010E-05	8.61008
1.243010E-05	8.38737
1.244010E-05	8.18409
1.245010E-05	7.99827
1.246010E-05	7.8281
1.247010E-05	7.67199
1.248260E-05	7.49446
1.249510E-05	7.33424
1.250760E-05	7.18919
1.252010E-05	7.05751
1.253260E-05	6.93763
1.254510E-05	6.82818
1.255760E-05	6.728
1.257010E-05	6.63606
1.258640E-05	6.52744
1.260270E-05	6.42961
1.261890E-05	6.34117
1.263520E-05	6.26097
1.265140E-05	6.18798
1.266770E-05	6.12137
1.268390E-05	6.0604
1.270020E-05	6.00444
1.272270E-05	5.93425
1.274520E-05	5.87143
1.276770E-05	5.81498
1.279020E-05	5.76405
1.281270E-05	5.71794
1.283520E-05	5.67606
1.285770E-05	5.6379
1.288020E-05	5.60303
1.290770E-05	5.56434
1.293530E-05	5.52943
1.296280E-05	5.49783
1.299030E-05	5.46912
1.301780E-05	5.44296
1.304530E-05	5.41905
1.308650E-05	5.38685
1.312280E-05	5.36168
1.315660E-05	5.34051
1.319030E-05	5.32125
1.323530E-05	5.29814
1.328040E-05	5.27758
1.332540E-05	5.25921
1.337040E-05	5.24271
1.341540E-05	5.22783
1.346040E-05	5.21436
1.350790E-05	5.20148
1.355540E-05	5.18979
1.362660E-05	5.17417
1.369780E-05	5.1605
1.376900E-05	5.14845
1.377850E-05	5.14703
1.384020E-05	5.13791
1.391340E-05	5.1283
1.398670E-05	5.11974
1.408430E-05	5.10967
1.418190E-05	5.10086
1.428090E-05	5.093
1.438130E-05	5.08596
1.448170E-05	5.0797
1.463230E-05	5.07152
1.478710E-05	5.06436
1.494190E-05	5.05819
1.509820E-05	5.0528
1.525740E-05	5.04802
1.541660E-05	5.04389
1.559080E-05	5.04013
1.573650E-05	5.03781
1.577330E-05	5.03742
1.584500E-05	5.03702
1.589750E-05	5.03724
1.595000E-05	5.03828
1.598500E-05	5.03978
1.601130E-05	5.04157
1.603750E-05	5.04417
1.606380E-05	5.0478
1.608120E-05	5.05091
1.609870E-05	5.05464
1.611620E-05	5.059
1.614250E-05	5.0667
1.617750E-05	5.07858
1.621250E-05	5.09079
1.623700E-05	5.09824
1.625800E-05	5.10314
1.627480E-05	5.10572
1.628880E-05	5.1068
1.629900E-05	5.10695
1.631120E-05	5.10639
1.632520E-05	5.1048
1.634200E-05	5.10164
1.636300E-05	5.09602
1.638750E-05	5.08778
1.644880E-05	5.06475
1.647500E-05	5.05589
1.649250E-05	5.0507
1.651000E-05	5.04613
1.652750E-05	5.04219
1.655370E-05	5.03735
1.658000E-05	5.0336
1.660630E-05	5.03072
1.663250E-05	5.02849
1.666920E-05	5.02612
1.672700E-05	5.0235
1.680400E-05	5.02111
1.690900E-05	5.01875
1.708400E-05	5.01583
1.738850E-05	5.01191
1.770000E-05	5.00857
1.791000E-05	5.00656
1.841540E-05	5.00226
1.893500E-05	4.99845
1.974390E-05	4.99347
2.058350E-05	4.98933
2.146280E-05	4.98601
2.237550E-05	4.98364
2.300680E-05	4.98266
2.313460E-05	4.98258
2.365600E-05	4.98024
2.432350E-05	4.97792
2.500980E-05	4.97637
2.571550E-05	4.9757
2.644110E-05	4.97613
2.700070E-05	4.97737
2.757070E-05	4.97958
2.815150E-05	4.98275
2.874310E-05	4.98732
2.935130E-05	4.99353
2.997110E-05	5.00166
3.038800E-05	5.00833
3.081670E-05	5.01632
3.124550E-05	5.02559
3.168630E-05	5.03664
3.212710E-05	5.04944
3.258040E-05	5.06469
3.303360E-05	5.08235
3.338310E-05	5.09788
3.373270E-05	5.11528
3.408550E-05	5.135
3.415430E-05	5.13933
3.444490E-05	5.16014
3.480430E-05	5.18875
3.510000E-05	5.21496
3.517050E-05	5.22215
3.554000E-05	5.26424
3.578640E-05	5.29457
3.603330E-05	5.32749
3.628100E-05	5.36315
3.652860E-05	5.40173
3.658520E-05	5.41131
3.677620E-05	5.44899
3.703010E-05	5.50294
3.729040E-05	5.56283
3.755070E-05	5.628
3.760310E-05	5.64234
3.781100E-05	5.70766
3.807500E-05	5.79774
3.827570E-05	5.87175
3.839520E-05	5.91903
3.847650E-05	5.95529
3.867720E-05	6.05099
3.887790E-05	6.15361
3.893310E-05	6.184
3.908060E-05	6.27317
3.928690E-05	6.40743
3.933060E-05	6.43811
3.949330E-05	6.56308
3.969970E-05	6.73423
3.971600E-05	6.74869
3.983730E-05	6.86691
3.997490E-05	7.0082
4.010150E-05	7.14545
4.011250E-05	7.15844
4.028640E-05	7.37644
4.034250E-05	7.45222
4.046030E-05	7.62243
4.056750E-05	7.78933
4.063420E-05	7.9007
4.075020E-05	8.10662
4.079250E-05	8.18593
4.086610E-05	8.33414
4.098200E-05	8.58018
4.101750E-05	8.65962
4.109060E-05	8.83647
4.119190E-05	9.09375
4.124250E-05	9.22906
4.129310E-05	9.37435
4.139440E-05	9.67977
4.141130E-05	9.73344
4.149560E-05	10.0196
4.158000E-05	10.3212
4.159690E-05	10.3859
4.169810E-05	10.7951
4.174870E-05	11.0115
4.179940E-05	11.2412
4.186130E-05	11.5373
4.188940E-05	11.6789
4.197380E-05	12.1299
4.200750E-05	12.3196
4.207610E-05	12.7282
4.208620E-05	12.7922
4.216500E-05	13.3136
4.221450E-05	13.658
4.224380E-05	13.8736
4.230680E-05	14.3616
4.232250E-05	14.4898
4.239900E-05	15.1444
4.240130E-05	15.1647
4.248000E-05	15.9117
4.249130E-05	16.0251
4.257450E-05	16.909
4.258350E-05	17.0101
4.263750E-05	17.6507
4.267580E-05	18.126
4.270050E-05	18.4518
4.276350E-05	19.3205
4.276800E-05	19.3857
4.282650E-05	20.2849
4.286250E-05	20.8663
4.288950E-05	21.3259
4.292550E-05	21.9703
4.295250E-05	22.4755
4.298850E-05	23.1827
4.300870E-05	23.5991
4.305150E-05	24.5283
4.308300E-05	25.2462
4.311450E-05	26.0038
4.313250E-05	26.4586
4.317750E-05	27.6469
4.318200E-05	27.7721
4.323150E-05	29.2119
4.324050E-05	29.4865
4.328100E-05	30.7831
4.329450E-05	31.2369
4.333050E-05	32.4994
4.333950E-05	32.8311
4.338000E-05	34.3846
4.338450E-05	34.5654
4.342050E-05	36.0725
4.342950E-05	36.4659
4.346100E-05	37.9021
4.347450E-05	38.5453
4.350150E-05	39.8894
4.351950E-05	40.8266
4.354200E-05	42.0527
4.356450E-05	43.3364
4.358250E-05	44.4131
4.360950E-05	46.1058
4.362300E-05	46.9926
4.365000E-05	48.8536
4.366350E-05	49.8251
4.368600E-05	51.5268
4.370400E-05	52.946
4.372200E-05	54.4472
4.375120E-05	56.9924
4.375800E-05	57.6112
4.378270E-05	59.981
4.379400E-05	61.1056
4.381430E-05	63.2237
4.383000E-05	64.945
4.384580E-05	66.7494
4.386600E-05	69.1758
4.387730E-05	70.5917
4.390200E-05	73.8528
4.390870E-05	74.7858
4.393350E-05	78.3717
4.394030E-05	79.3925
4.396050E-05	82.6016
4.396950E-05	84.0872
4.398750E-05	87.1943
4.399650E-05	88.8143
4.401450E-05	92.201
4.402350E-05	93.9691
4.404150E-05	97.67
4.405050E-05	99.6049
4.406850E-05	103.66
4.407750E-05	105.784
4.409550E-05	110.241
4.410450E-05	112.578
4.412250E-05	117.491
4.413150E-05	120.067
4.414730E-05	124.812
4.415850E-05	128.354
4.416970E-05	132.079
4.418210E-05	136.357
4.419220E-05	140.018
4.420240E-05	143.845
4.421470E-05	148.726
4.422260E-05	151.979
4.423730E-05	158.287
4.424290E-05	160.832
4.425980E-05	168.812
4.426310E-05	170.49
4.428220E-05	180.432
4.428340E-05	181.048
4.430360E-05	192.652
4.430480E-05	193.329
4.432390E-05	205.408
4.432500E-05	206.155
4.434300E-05	218.632
4.436100E-05	232.277
4.437900E-05	247.206
4.439700E-05	263.564
4.441500E-05	281.512
4.443300E-05	301.228
4.445100E-05	322.905
4.446790E-05	345.226
4.446900E-05	346.781
4.448360E-05	367.923
4.448530E-05	370.468
4.449940E-05	392.55
4.449990E-05	393.471
4.451460E-05	418.351
4.451510E-05	419.346
4.452920E-05	445.245
4.453090E-05	448.474
4.454380E-05	474.244
4.454660E-05	480.06
4.455840E-05	505.473
4.456240E-05	514.259
4.457310E-05	539.051
4.457810E-05	551.218
4.458770E-05	575.184
4.459730E-05	600.094
4.460630E-05	624.535
4.461410E-05	646.777
4.462310E-05	673.158
4.463100E-05	697.07
4.464000E-05	725.374
4.464790E-05	750.969
4.465690E-05	781.193
4.466480E-05	808.583
4.467940E-05	861.195
4.468610E-05	886.407
4.470520E-05	960.177
4.470640E-05	964.67
4.473560E-05	1085.26
4.473680E-05	1090.03
4.477630E-05	1263.01
4.478490E-05	1300.63
4.482470E-05	1475.43
4.483210E-05	1507.21
4.485240E-05	1590.78
4.485870E-05	1615.66
4.487940E-05	1693.26
4.488430E-05	1710.81
4.489740E-05	1753.58
4.491000E-05	1792.33
4.491540E-05	1807.45
4.492800E-05	1839.79
4.493340E-05	1852.26
4.494600E-05	1878.1
4.495140E-05	1887.66
4.496400E-05	1906.44
4.496940E-05	1912.9
4.498200E-05	1924.13
4.498830E-05	1927.91
4.499860E-05	1931.14
4.500290E-05	1931.19
4.501760E-05	1927.06
4.502230E-05	1924.41
4.503240E-05	1915.73
4.503780E-05	1909.63
4.505040E-05	1891.95
4.505580E-05	1882.87
4.506840E-05	1857.98
4.507560E-05	1841.92
4.508590E-05	1815.81
4.509720E-05	1784.88
4.510350E-05	1765.94
4.511700E-05	1722.44
4.512440E-05	1696.75
4.514400E-05	1624.75
4.515210E-05	1593.29
4.517100E-05	1516.25
4.518900E-05	1440.13
4.522050E-05	1304.48
4.525990E-05	1134.34
4.526100E-05	1129.59
4.528120E-05	1046.17
4.529470E-05	991.878
4.530380E-05	956.818
4.531730E-05	905.837
4.532620E-05	872.94
4.533970E-05	825.375
4.534880E-05	794.739
4.535830E-05	763.377
4.536670E-05	736.734
4.538020E-05	695.71
4.538700E-05	676.091
4.540220E-05	633.84
4.540730E-05	620.411
4.542410E-05	577.682
4.542750E-05	569.486
4.543880E-05	543.456
4.544770E-05	523.345
4.545340E-05	511.38
4.546800E-05	481.378
4.548380E-05	451.724
4.548600E-05	447.651
4.549950E-05	424.319
4.550400E-05	416.845
4.551530E-05	399.011
4.552200E-05	388.733
4.553100E-05	375.653
4.554000E-05	363.092
4.554670E-05	354.098
4.555800E-05	339.706
4.556250E-05	334.208
4.557600E-05	318.372
4.557830E-05	315.849
4.559400E-05	298.896
4.561200E-05	281.151
4.563000E-05	265.014
4.563450E-05	261.149
4.564800E-05	250.186
4.565700E-05	243.182
4.566600E-05	236.547
4.567950E-05	227.006
4.568400E-05	223.987
4.570200E-05	212.407
4.572000E-05	201.841
4.572450E-05	199.299
4.573800E-05	192.05
4.574700E-05	187.419
4.576050E-05	180.804
4.576950E-05	176.593
4.578300E-05	170.57
4.579200E-05	166.73
4.580550E-05	161.255
4.581900E-05	156.013
4.582800E-05	152.699
4.584600E-05	146.348
4.585050E-05	144.839
4.587300E-05	137.604
4.589550E-05	130.989
4.590000E-05	129.715
4.591800E-05	124.864
4.592700E-05	122.539
4.594730E-05	117.55
4.595400E-05	115.963
4.597650E-05	110.909
4.598100E-05	109.943
4.600570E-05	104.9
4.601810E-05	102.486
4.603500E-05	99.3657
4.604850E-05	96.9729
4.606430E-05	94.3266
4.608900E-05	90.3368
4.609350E-05	89.6525
4.612280E-05	85.3822
4.612950E-05	84.4334
4.615200E-05	81.4475
4.617000E-05	79.156
4.618800E-05	76.9867
4.621050E-05	74.3939
4.622400E-05	72.9179
4.625100E-05	70.0919
4.626000E-05	69.1963
4.629150E-05	66.192
4.629600E-05	65.7832
4.633200E-05	62.6451
4.636800E-05	59.7765
4.637700E-05	59.0857
4.640400E-05	57.1183
4.642200E-05	55.8542
4.644000E-05	54.6515
4.646700E-05	52.9189
4.648500E-05	51.8303
4.653000E-05	49.2263
4.653450E-05	48.9763
4.657500E-05	46.8791
4.660200E-05	45.5363
4.662000E-05	44.6983
4.666500E-05	42.6856
4.666950E-05	42.4916
4.671000E-05	40.8438
4.672120E-05	40.4025
4.675500E-05	39.1441
4.677980E-05	38.2538
4.680000E-05	37.5621
4.683820E-05	36.305
4.685400E-05	35.8181
4.690800E-05	34.2168
4.692600E-05	33.7033
4.696200E-05	32.7475
4.701370E-05	31.4253
4.701600E-05	31.3716
4.707000E-05	30.1296
4.710150E-05	29.4304
4.712400E-05	28.9576
4.716000E-05	28.2331
4.720500E-05	27.3745
4.725000E-05	26.5532
4.726690E-05	26.2639
4.733660E-05	25.1149
4.734000E-05	25.0615
4.740640E-05	24.0734
4.743000E-05	23.7351
4.747610E-05	23.1124
4.752000E-05	22.5422
4.754590E-05	22.2283
4.761560E-05	21.4134
4.765500E-05	20.9692
4.768540E-05	20.6528
4.775510E-05	19.9514
4.779000E-05	19.6123
4.782940E-05	19.2587
4.790810E-05	18.5766
4.793620E-05	18.3413
4.798690E-05	17.9523
4.806560E-05	17.368
4.810500E-05	17.0874
4.818370E-05	16.573
4.827370E-05	16.0128
4.830190E-05	15.8513
4.842000E-05	15.2047
4.844250E-05	15.0864
4.852130E-05	14.7037
4.861130E-05	14.2822
4.862250E-05	14.2332
4.872380E-05	13.8084
4.878000E-05	13.5803
4.882500E-05	13.4122
4.892620E-05	13.0468
4.900500E-05	12.7735
4.907810E-05	12.5415
4.923000E-05	12.0819
4.935370E-05	11.7517
4.945500E-05	11.4908
4.947750E-05	11.4373
4.960130E-05	11.1532
4.968000E-05	10.9781
4.972500E-05	10.8868
4.984870E-05	10.644
4.999500E-05	10.3678
5.003440E-05	10.3006
5.022000E-05	9.99797
5.031000E-05	9.85663
5.037750E-05	9.76023
5.053500E-05	9.54304
5.062500E-05	9.4229
5.069250E-05	9.34225
5.085000E-05	9.16027
5.100750E-05	8.98386
5.109370E-05	8.8901
5.116500E-05	8.82158
5.140120E-05	8.60303
5.155460E-05	8.46674
5.162990E-05	8.4071
5.185480E-05	8.23595
5.201560E-05	8.1178
5.207970E-05	8.07535
5.230460E-05	7.93168
5.244560E-05	7.84454
5.252940E-05	7.79798
5.278560E-05	7.6607
5.299820E-05	7.55044
5.321070E-05	7.4563
5.342330E-05	7.36479
5.369960E-05	7.24953
5.372090E-05	7.24184
5.400780E-05	7.14206
5.429470E-05	7.04608
5.451580E-05	6.9753
5.453700E-05	6.96955
5.468580E-05	6.93183
5.478790E-05	6.9085
5.484740E-05	6.89685
5.491110E-05	6.88721
5.495360E-05	6.8832
5.499400E-05	6.88177
5.503230E-05	6.883
5.507270E-05	6.88733
5.511520E-05	6.8953
5.513640E-05	6.90047
5.526400E-05	6.93778
5.529580E-05	6.94465
5.532600E-05	6.94841
5.535660E-05	6.94871
5.538470E-05	6.94538
5.541020E-05	6.93917
5.543570E-05	6.92991
5.546120E-05	6.91773
5.549690E-05	6.89637
5.553430E-05	6.86974
5.559550E-05	6.82102
5.565930E-05	6.7725
5.570180E-05	6.74286
5.574430E-05	6.71648
5.576560E-05	6.7046
5.580810E-05	6.68338
5.584640E-05	6.66689
5.588460E-05	6.65247
5.594200E-05	6.63381
5.600150E-05	6.6171
5.608230E-05	6.59699
5.620340E-05	6.56968
5.638200E-05	6.5322
5.667530E-05	6.47375
5.699410E-05	6.42239
5.731300E-05	6.3727
5.766370E-05	6.31957
5.807810E-05	6.25854
5.849260E-05	6.21032
5.897080E-05	6.15644
5.948100E-05	6.10078
5.999110E-05	6.0468
6.037370E-05	6.01529
6.075630E-05	5.98455
6.113890E-05	5.95456
6.170750E-05	5.91125
6.226570E-05	5.87016
6.282390E-05	5.83827
6.334000E-05	5.81004
6.367000E-05	5.79264
6.400000E-05	5.77587
6.433000E-05	5.75975
6.466000E-05	5.74435
6.499000E-05	5.72978
6.532000E-05	5.71619
6.556750E-05	5.70676
6.582880E-05	5.69764
6.609690E-05	5.68934
6.636500E-05	5.68236
6.654370E-05	5.67857
6.672250E-05	5.67559
6.690130E-05	5.67359
6.708000E-05	5.67275
6.721750E-05	5.67305
6.735500E-05	5.67429
6.749250E-05	5.67663
6.763000E-05	5.68025
6.776750E-05	5.68538
6.790500E-05	5.69229
6.800810E-05	5.69886
6.811130E-05	5.70681
6.818000E-05	5.7132
6.822130E-05	5.71606
6.830380E-05	5.72315
6.838630E-05	5.7316
6.846870E-05	5.74159
6.855120E-05	5.75337
6.863380E-05	5.76719
6.871620E-05	5.78339
6.879870E-05	5.80234
6.887090E-05	5.82155
6.893280E-05	5.84026
6.899470E-05	5.86135
6.905660E-05	5.88514
6.911840E-05	5.91202
6.918030E-05	5.94248
6.924220E-05	5.97708
6.928860E-05	6.00615
6.933500E-05	6.03827
