E(MeV)	mcnp/Pb-206:1
1.00000E-11	47.7752164
1.15436E-11	44.63474027
1.30872E-11	42.07724507
1.61743E-11	38.13124179
1.92615E-11	35.19931361
2.23486E-11	32.91549422
2.54358E-11	31.07513408
2.85229E-11	29.55369106
3.46973E-11	27.17073903
4.08716E-11	25.37707739
4.70459E-11	23.9697345
5.32202E-11	22.83133277
5.93945E-11	21.8887262
7.17431E-11	20.41294008
8.40918E-11	19.30579809
9.64404E-11	18.4417064
1.08789E-10	17.74717112
1.33486E-10	16.69777404
1.58184E-10	15.94129584
1.82881E-10	15.36968882
2.07578E-10	14.92253949
2.56973E-10	14.26841452
3.06367E-10	13.81344047
3.55762E-10	13.4790696
4.05156E-10	13.22316505
5.03945E-10	12.85755706
6.02734E-10	12.60901879
7.01523E-10	12.42903691
8.00313E-10	12.29260323
9.97891E-10	12.0992421
1.19547E-09	11.96853314
1.39305E-09	11.87408799
1.59063E-09	11.80254085
1.98578E-09	11.70110669
2.38094E-09	11.6324505
2.77609E-09	11.58276305
3.17125E-09	11.54505759
3.96156E-09	11.49145706
4.75188E-09	11.45504219
5.54219E-09	11.42861003
6.33250E-09	11.40850172
7.91313E-09	11.37979188
9.49375E-09	11.36016543
1.10744E-08	11.3458591
1.26550E-08	11.33494624
1.58163E-08	11.31926878
1.89775E-08	11.30846248
2.21388E-08	11.30053806
2.53000E-08	11.2944537
2.85013E-08	11.28956626
3.17026E-08	11.28559868
3.81052E-08	11.2794873
4.45078E-08	11.27496532
5.09104E-08	11.27147644
5.73130E-08	11.26869311
6.37156E-08	11.2664239
7.65209E-08	11.26289553
8.93261E-08	11.26025724
1.02131E-07	11.25820458
1.27742E-07	11.25519659
1.53352E-07	11.25306694
1.78963E-07	11.25145442
2.04573E-07	11.25018489
2.30184E-07	11.24915609
2.81404E-07	11.24756124
3.32625E-07	11.24636258
3.83846E-07	11.24541819
4.35067E-07	11.2446477
5.37509E-07	11.24343723
6.39951E-07	11.2425052
7.42392E-07	11.24174846
8.44834E-07	11.24111028
1.04972E-06	11.24005939
1.25460E-06	11.23919697
1.45948E-06	11.23845262
1.66437E-06	11.23778773
2.07414E-06	11.23660956
2.48390E-06	11.23555843
2.89367E-06	11.23458686
3.30344E-06	11.23366896
4.12297E-06	11.23193653
4.94251E-06	11.2302917
5.76204E-06	11.22870246
6.58158E-06	11.22715138
8.22064E-06	11.22412519
9.85971E-06	11.22116628
1.14988E-05	11.21825292
1.31379E-05	11.21537332
1.64160E-05	11.20968892
1.96941E-05	11.20408082
2.29723E-05	11.19853386
2.62504E-05	11.19303977
3.28067E-05	11.18219027
3.93630E-05	11.17150746
4.59192E-05	11.16097853
5.24755E-05	11.15059553
6.55881E-05	11.13024287
7.87006E-05	11.1104163
9.18132E-05	11.09108762
1.04926E-04	11.0722367
1.31151E-04	11.03588752
1.57376E-04	11.00123533
2.09826E-04	10.93654174
2.49164E-04	10.89165747
3.14727E-04	10.82292513
3.67177E-04	10.77274839
4.98302E-04	10.66282439
6.03203E-04	10.58790147
7.34328E-04	10.50700077
1.04903E-03	10.35478097
1.25883E-03	10.27649033
1.67843E-03	10.15566174
2.30783E-03	10.02937356
2.62254E-03	9.981573939
2.88479E-03	9.947167482
3.04214E-03	9.928577608
3.09459E-03	9.922751041
3.17326E-03	9.914536878
3.22571E-03	9.909814082
3.25194E-03	9.908080394
3.27816E-03	9.90756209
3.29128E-03	9.908426927
3.30439E-03	9.911109903
3.31094E-03	9.913843178
3.31750E-03	9.918440201
3.32406E-03	9.926370718
3.32733E-03	9.932588792
3.33061E-03	9.941504406
3.33389E-03	9.954670035
3.33717E-03	9.974737148
3.34045E-03	10.008235
3.34209E-03	10.03427528
3.34373E-03	10.07083056
3.34537E-03	10.123514
3.34618E-03	10.1594011
3.34782E-03	10.26448154
3.34864E-03	10.34284486
3.34946E-03	10.44932
3.34987E-03	10.51796606
3.35069E-03	10.70178976
3.35110E-03	10.82754177
3.35151E-03	10.9867159
3.35192E-03	11.19316161
3.35233E-03	11.46934952
3.35274E-03	11.8607181
3.35295E-03	12.1262968
3.35315E-03	12.46619203
3.35336E-03	12.91831127
3.35356E-03	13.54558197
3.35376E-03	14.44588726
3.35387E-03	15.04699717
3.35397E-03	15.79181107
3.35407E-03	16.69998536
3.35417E-03	17.83106422
3.35428E-03	19.21204582
3.35438E-03	20.92792691
3.35448E-03	23.0108456
3.35458E-03	25.57590732
3.35469E-03	28.65335721
3.35479E-03	32.38954
3.35489E-03	36.79881152
3.35499E-03	42.05383693
3.35510E-03	48.13106218
3.35520E-03	55.21668741
3.35530E-03	63.22059905
3.35540E-03	72.32201584
3.35551E-03	82.33400028
3.35561E-03	93.40364792
3.35571E-03	105.2240469
3.35587E-03	124.369887
3.35628E-03	177.4587574
3.35643E-03	195.2878621
3.35656E-03	207.8531558
3.35671E-03	219.6035189
3.35684E-03	225.9296387
3.35700E-03	228.8035847
3.35714E-03	226.6051921
3.35730E-03	218.7318017
3.35745E-03	207.607899
3.35762E-03	190.0217312
3.35785E-03	161.9315324
3.35819E-03	117.2983372
3.35831E-03	103.2389308
3.35853E-03	78.22462915
3.35865E-03	67.5384528
3.35876E-03	58.02735657
3.35888E-03	49.84453294
3.35899E-03	42.78998684
3.35911E-03	36.89884354
3.35922E-03	31.95841141
3.35934E-03	27.93601611
3.35945E-03	24.63884127
3.35956E-03	22.00752023
3.35968E-03	19.88651452
3.35979E-03	18.21595689
3.35991E-03	16.88146838
3.36002E-03	15.83502935
3.36014E-03	14.99860273
3.36025E-03	14.33885796
3.36037E-03	13.80559881
3.36060E-03	13.02548587
3.36082E-03	12.49097323
3.36105E-03	12.10650079
3.36128E-03	11.8136706
3.36174E-03	11.39542175
3.36220E-03	11.10873886
3.36266E-03	10.9000899
3.36311E-03	10.74231317
3.36357E-03	10.6197092
3.36449E-03	10.44386286
3.36540E-03	10.32574485
3.36632E-03	10.24172756
3.36723E-03	10.17986712
3.36815E-03	10.1331133
3.36998E-03	10.06873979
3.37181E-03	10.02716621
3.37365E-03	9.998270949
3.37731E-03	9.962370818
3.37914E-03	9.950925149
3.38280E-03	9.934761185
3.39013E-03	9.916554275
3.39380E-03	9.911190335
3.40112E-03	9.903952012
3.40845E-03	9.899280858
3.41578E-03	9.896029295
3.43043E-03	9.891633472
3.44508E-03	9.888600221
3.45974E-03	9.886220927
3.50370E-03	9.880665761
3.53301E-03	9.877498574
3.59162E-03	9.871640008
3.65024E-03	9.866096484
3.76747E-03	9.855526723
3.94332E-03	9.840570084
4.11916E-03	9.826488456
4.52947E-03	9.796462063
5.70178E-03	9.726574926
9.45318E-03	9.579625186
9.92210E-03	9.56532756
1.03910E-02	9.551545363
1.06255E-02	9.544852984
1.06841E-02	9.543217121
1.07427E-02	9.541626807
1.07720E-02	9.540880247
1.08013E-02	9.540244834
1.08160E-02	9.540058737
1.08233E-02	9.540062325
1.08306E-02	9.540224993
1.08380E-02	9.540742079
1.08416E-02	9.541334388
1.08453E-02	9.542525059
1.08490E-02	9.545109563
1.08508E-02	9.547873475
1.08526E-02	9.554088089
1.08535E-02	9.563510873
1.08540E-02	9.575446497
1.08545E-02	9.600238848
1.08549E-02	9.650028901
1.08554E-02	9.75073475
1.08558E-02	9.939599671
1.08563E-02	10.26883537
1.08567E-02	10.783842
1.08572E-02	11.55614302
1.08577E-02	12.59013378
1.08581E-02	13.83508435
1.08588E-02	15.79430134
1.08590E-02	16.37064945
1.08594E-02	17.05964092
1.08597E-02	17.44222192
1.08598E-02	17.54792921
1.08600E-02	17.60365459
1.08601E-02	17.57860104
1.08603E-02	17.50576511
1.08605E-02	17.2907723
1.08609E-02	16.5418069
1.08611E-02	16.04092799
1.08622E-02	13.09493133
1.08626E-02	12.04863442
1.08630E-02	11.20782382
1.08634E-02	10.57460124
1.08638E-02	10.15452943
1.08643E-02	9.888043103
1.08647E-02	9.729987588
1.08651E-02	9.641797026
1.08655E-02	9.595085321
1.08659E-02	9.571251491
1.08664E-02	9.55924627
1.08668E-02	9.552939553
1.08676E-02	9.547429586
1.08685E-02	9.544852527
1.08702E-02	9.542098116
1.08735E-02	9.539705674
1.08769E-02	9.53864326
1.08803E-02	9.538090303
1.08870E-02	9.537501152
1.08938E-02	9.537153333
1.09005E-02	9.536897593
1.09140E-02	9.536476734
1.09410E-02	9.535721297
1.09680E-02	9.534982658
1.10220E-02	9.533503496
1.10759E-02	9.532019485
1.11299E-02	9.530536154
1.11839E-02	9.529064584
1.12109E-02	9.528348187
1.12243E-02	9.528006783
1.12378E-02	9.52769582
1.12513E-02	9.527463193
1.12581E-02	9.527425133
1.12648E-02	9.5275302
1.12716E-02	9.527977455
1.12749E-02	9.528546538
1.12783E-02	9.529768146
1.12817E-02	9.532603644
1.12834E-02	9.535835946
1.12851E-02	9.543581304
1.12859E-02	9.554199722
1.12868E-02	9.582900778
1.12872E-02	9.613348439
1.12876E-02	9.663639564
1.12880E-02	9.743590633
1.12884E-02	9.867985904
1.12889E-02	10.04179722
1.12893E-02	10.27347153
1.12897E-02	10.56028498
1.12908E-02	11.3929622
1.12912E-02	11.66951254
1.12915E-02	11.8159841
1.12919E-02	11.90642067
1.12920E-02	11.91412268
1.12922E-02	11.89602429
1.12926E-02	11.77260828
1.12929E-02	11.6314185
1.12936E-02	11.11717928
1.12943E-02	10.55739721
1.12947E-02	10.30937096
1.12950E-02	10.10110969
1.12954E-02	9.939682038
1.12957E-02	9.813628364
1.12965E-02	9.660790009
1.12972E-02	9.5906116
1.12979E-02	9.560814681
1.12986E-02	9.548392982
1.12993E-02	9.542376839
1.13007E-02	9.536516032
1.13036E-02	9.53163647
1.13064E-02	9.52943123
1.13093E-02	9.528253995
1.13150E-02	9.527009551
1.13207E-02	9.526327472
1.13264E-02	9.525888362
1.13378E-02	9.525288398
1.13492E-02	9.524835532
1.13606E-02	9.524445077
1.13834E-02	9.523739798
1.14291E-02	9.522430203
1.14747E-02	9.521162055
1.15660E-02	9.518663278
1.16572E-02	9.516186059
1.23873E-02	9.496702209
1.34825E-02	9.467874517
1.36650E-02	9.463015443
1.38475E-02	9.458126774
1.39388E-02	9.455707634
1.39844E-02	9.454541886
1.40300E-02	9.453471085
1.40757E-02	9.452674948
1.40985E-02	9.45256232
1.41213E-02	9.452968069
1.41441E-02	9.454709526
1.41555E-02	9.456901779
1.41669E-02	9.461448113
1.41783E-02	9.471723098
1.41840E-02	9.482477564
1.41897E-02	9.502464908
1.41954E-02	9.547028116
1.41983E-02	9.592706117
1.42011E-02	9.680881106
1.42026E-02	9.759712037
1.42040E-02	9.891222475
1.42054E-02	10.1502471
1.42061E-02	10.40603218
1.42068E-02	10.87564012
1.42072E-02	11.23944849
1.42076E-02	11.75647323
1.42079E-02	12.44693707
1.42083E-02	13.41098693
1.42086E-02	14.65994139
1.42090E-02	16.33278297
1.42093E-02	18.45794636
1.42097E-02	21.07107775
1.42100E-02	24.07655091
1.42104E-02	27.59143194
1.42113E-02	37.22116799
1.42117E-02	40.92386299
1.42119E-02	43.37964414
1.42123E-02	46.01027274
1.42126E-02	47.37440926
1.42128E-02	48.13645909
1.42130E-02	48.28891627
1.42134E-02	47.63052519
1.42138E-02	45.75916594
1.42141E-02	43.20987163
1.42144E-02	40.73117331
1.42148E-02	36.47356866
1.42156E-02	27.71941988
1.42159E-02	25.14014035
1.42161E-02	22.68463068
1.42164E-02	20.48963123
1.42167E-02	18.57021294
1.42169E-02	16.92546448
1.42172E-02	15.54203717
1.42175E-02	14.39786638
1.42178E-02	13.46567554
1.42180E-02	12.74084587
1.42183E-02	12.13918499
1.42188E-02	11.29133513
1.42194E-02	10.77014637
1.42199E-02	10.44650434
1.42210E-02	10.09735482
1.42221E-02	9.920218031
1.42242E-02	9.740916676
1.42264E-02	9.650215807
1.42307E-02	9.562877936
1.42350E-02	9.523028566
1.42436E-02	9.487026825
1.42565E-02	9.467741412
1.42651E-02	9.461706987
1.42824E-02	9.455323201
1.42996E-02	9.451966415
1.43168E-02	9.449882197
1.43513E-02	9.447241057
1.43858E-02	9.445432099
1.44202E-02	9.443969452
1.44892E-02	9.441465599
1.46270E-02	9.436971592
1.47649E-02	9.432577453
1.50406E-02	9.423363941
1.53164E-02	9.412841946
1.55921E-02	9.399511295
1.57989E-02	9.385338114
1.59712E-02	9.366783074
1.61091E-02	9.340162135
1.61780E-02	9.316821127
1.62125E-02	9.29974982
1.62469E-02	9.276194862
1.62986E-02	9.216858373
1.63245E-02	9.163945591
1.63503E-02	9.072561093
1.63632E-02	8.997256315
1.63762E-02	8.878057818
1.63891E-02	8.664055689
1.63955E-02	8.477205965
1.63999E-02	8.289190375
1.64020E-02	8.163647901
1.64052E-02	7.914317848
1.64063E-02	7.807115958
1.64085E-02	7.540890949
1.64096E-02	7.372421782
1.64106E-02	7.174743874
1.64117E-02	6.950925679
1.64122E-02	6.833927719
1.64128E-02	6.726005846
1.64133E-02	6.647514853
1.64139E-02	6.635039785
1.64144E-02	6.748530345
1.64149E-02	7.077032146
1.64155E-02	7.72262281
1.64157E-02	8.21619708
1.64160E-02	8.843668407
1.64163E-02	9.620553659
1.64166E-02	10.55933559
1.64168E-02	11.6678974
1.64171E-02	12.9479514
1.64174E-02	14.39361376
1.64176E-02	15.99029841
1.64179E-02	17.71409982
1.64182E-02	19.53181064
1.64186E-02	22.30639789
1.64188E-02	24.16232838
1.64193E-02	26.81519054
1.64195E-02	28.37246773
1.64198E-02	29.81034337
1.64200E-02	30.59604726
1.64205E-02	31.9128195
1.64210E-02	32.34105224
1.64213E-02	32.11605327
1.64218E-02	31.01932175
1.64222E-02	29.62735911
1.64228E-02	26.97082933
1.64232E-02	25.04224513
1.64236E-02	23.19363994
1.64240E-02	21.42391216
1.64244E-02	19.87479565
1.64248E-02	18.4952938
1.64252E-02	17.35477659
1.64256E-02	16.38176162
1.64260E-02	15.60065688
1.64264E-02	14.94504736
1.64272E-02	13.97804919
1.64280E-02	13.31522109
1.64288E-02	12.82687775
1.64296E-02	12.45498032
1.64305E-02	12.16056736
1.64321E-02	11.72071392
1.64337E-02	11.4053311
1.64353E-02	11.16785212
1.64369E-02	10.98006411
1.64402E-02	10.70431689
1.64466E-02	10.37082528
1.64563E-02	10.10188738
1.64628E-02	9.993098718
1.64790E-02	9.828942288
1.64984E-02	9.722395717
1.65243E-02	9.643086386
1.65502E-02	9.595243258
1.65760E-02	9.563279779
1.66019E-02	9.540379256
1.66796E-02	9.498529107
1.67313E-02	9.481823188
1.68349E-02	9.460167066
1.69901E-02	9.440972981
1.71454E-02	9.428631245
1.75595E-02	9.40791411
1.82842E-02	9.38486447
1.86983E-02	9.374225937
1.89054E-02	9.369284472
1.91124E-02	9.364590926
1.93195E-02	9.360282168
1.94230E-02	9.358464941
1.95265E-02	9.357375065
1.95783E-02	9.357673722
1.96042E-02	9.3584221
1.96300E-02	9.360114383
1.96559E-02	9.363970649
1.96689E-02	9.36784993
1.96818E-02	9.3749615
1.96947E-02	9.389466347
1.97012E-02	9.403636385
1.97077E-02	9.42876035
1.97109E-02	9.449653928
1.97174E-02	9.536986133
1.97206E-02	9.637763805
1.97239E-02	9.876293076
1.97255E-02	10.19151189
1.97263E-02	10.52544127
1.97271E-02	11.15295554
1.97275E-02	11.6526449
1.97279E-02	12.36180078
1.97283E-02	13.30853557
1.97287E-02	14.614204
1.97291E-02	16.29030509
1.97295E-02	18.49279897
1.97299E-02	21.16633585
1.97303E-02	24.46472859
1.97307E-02	28.19879379
1.97311E-02	32.46365171
1.97322E-02	43.66807313
1.97326E-02	47.7158423
1.97329E-02	50.42064243
1.97332E-02	52.84859099
1.97335E-02	54.29119814
1.97340E-02	55.20378992
1.97344E-02	54.45905877
1.97348E-02	52.94656659
1.97351E-02	51.01401669
1.97353E-02	48.60272242
1.97357E-02	45.40312445
1.97372E-02	29.09529764
1.97376E-02	24.78032236
1.97381E-02	21.02817045
1.97385E-02	18.0482745
1.97390E-02	15.67698386
1.97394E-02	13.93756769
1.97399E-02	12.64633718
1.97403E-02	11.75310762
1.97408E-02	11.11936114
1.97413E-02	10.68586956
1.97417E-02	10.38931766
1.97426E-02	10.04154554
1.97435E-02	9.856057905
1.97454E-02	9.666472268
1.97472E-02	9.569505168
1.97527E-02	9.445940723
1.97563E-02	9.412283602
1.97636E-02	9.380550825
1.97709E-02	9.367028596
1.97782E-02	9.363325413
1.97819E-02	9.367454098
1.97837E-02	9.375924576
1.97846E-02	9.386990408
1.97855E-02	9.41369387
1.97864E-02	9.48022124
1.97873E-02	9.639200481
1.97878E-02	9.777630673
1.97882E-02	9.977475855
1.97887E-02	10.24909885
1.97892E-02	10.60170775
1.97896E-02	11.02692525
1.97901E-02	11.53509183
1.97914E-02	13.20091346
1.97919E-02	13.67465764
1.97923E-02	14.02110654
1.97927E-02	14.18842229
1.97930E-02	14.22231727
1.97932E-02	14.20696871
1.97937E-02	14.01533117
1.97940E-02	13.84397633
1.97942E-02	13.62014713
1.97947E-02	13.08885599
1.97957E-02	11.84514473
1.97962E-02	11.25345436
1.97967E-02	10.74292336
1.97973E-02	10.33146563
1.97978E-02	10.02484454
1.97983E-02	9.799744761
1.97988E-02	9.646112367
1.97993E-02	9.545697605
1.98003E-02	9.443724578
1.98013E-02	9.404324961
1.98023E-02	9.387985163
1.98033E-02	9.379379004
1.98054E-02	9.37004539
1.98094E-02	9.361411473
1.98176E-02	9.354517414
1.98257E-02	9.351511313
1.98419E-02	9.348771606
1.98582E-02	9.34738591
1.98906E-02	9.345862671
1.99231E-02	9.344882999
1.99881E-02	9.34337048
2.00530E-02	9.342011865
2.01829E-02	9.339365868
2.03128E-02	9.336722812
2.05726E-02	9.331435295
2.08325E-02	9.32618633
2.13521E-02	9.315979832
2.14820E-02	9.313566652
2.16119E-02	9.311344262
2.16769E-02	9.310435663
2.17418E-02	9.309992292
2.17743E-02	9.310318762
2.17905E-02	9.310878269
2.18068E-02	9.312074719
2.18230E-02	9.31471758
2.18311E-02	9.317369011
2.18393E-02	9.322302795
2.18474E-02	9.332383984
2.18514E-02	9.342432292
2.18555E-02	9.361605375
2.18596E-02	9.403910337
2.18616E-02	9.452876549
2.18626E-02	9.500568089
2.18636E-02	9.596248595
2.18646E-02	9.816596713
2.18656E-02	10.35705877
2.18661E-02	10.84233758
2.18667E-02	11.56468776
2.18672E-02	12.58121639
2.18677E-02	13.94777103
2.18682E-02	15.6559858
2.18687E-02	17.75889766
2.18692E-02	20.14939504
2.18702E-02	25.10296921
2.18708E-02	27.70779853
2.18712E-02	28.88765381
2.18715E-02	29.51636167
2.18719E-02	29.85973068
2.18720E-02	29.87793493
2.18725E-02	29.51238918
2.18728E-02	28.93034023
2.18731E-02	28.07077584
2.18736E-02	25.7666101
2.18754E-02	17.23679308
2.18758E-02	15.64891723
2.18762E-02	14.27566034
2.18766E-02	13.12689197
2.18770E-02	12.17402338
2.18774E-02	11.44458377
2.18778E-02	10.87284649
2.18786E-02	10.14633553
2.18794E-02	9.774899759
2.18801E-02	9.588123246
2.18809E-02	9.495020985
2.18817E-02	9.445223312
2.18833E-02	9.395368952
2.18849E-02	9.369448388
2.18880E-02	9.342118668
2.18912E-02	9.328773255
2.18975E-02	9.316516078
2.19038E-02	9.311005184
2.19101E-02	9.308262591
2.19227E-02	9.305678172
2.19354E-02	9.304483368
2.19480E-02	9.303824332
2.19732E-02	9.303049312
2.19985E-02	9.302511674
2.20237E-02	9.302047333
2.20742E-02	9.301172536
2.21751E-02	9.29943652
2.22761E-02	9.297686198
2.26799E-02	9.290833083
2.30837E-02	9.284730316
2.35885E-02	9.279646074
2.38913E-02	9.279756067
2.41942E-02	9.285771311
2.44971E-02	9.307326573
2.46485E-02	9.333081563
2.47999E-02	9.384134461
2.49261E-02	9.472247534
2.50018E-02	9.570872811
2.50397E-02	9.645603635
2.50649E-02	9.712301134
2.50775E-02	9.755684242
2.50839E-02	9.784814245
2.50870E-02	9.804534066
2.50902E-02	9.831794463
2.50917E-02	9.853067346
2.50933E-02	9.892984844
2.50941E-02	9.933918665
2.50949E-02	10.01075696
2.50957E-02	10.16026809
2.50965E-02	10.44550729
2.50973E-02	10.95042419
2.50980E-02	11.79550445
2.50988E-02	13.06317419
2.50996E-02	14.75807712
2.51008E-02	17.74038473
2.51012E-02	18.71316592
2.51018E-02	19.93670369
2.51023E-02	20.65572799
2.51026E-02	20.92715438
2.51030E-02	21.06702002
2.51036E-02	20.72793406
2.51039E-02	20.38194152
2.51046E-02	19.06746104
2.51049E-02	18.3970888
2.51061E-02	15.52936143
2.51066E-02	14.17040644
2.51072E-02	12.99880988
2.51078E-02	12.05512703
2.51083E-02	11.351248
2.51089E-02	10.83679086
2.51095E-02	10.4871099
2.51100E-02	10.26036565
2.51112E-02	10.03429413
2.51123E-02	9.955184268
2.51134E-02	9.928070476
2.51146E-02	9.917759723
2.51169E-02	9.912311085
2.51214E-02	9.920243763
2.51305E-02	9.957599993
2.51487E-02	10.05814585
2.51942E-02	10.43664393
2.52215E-02	10.79957984
2.52488E-02	11.34830353
2.52670E-02	11.88481056
2.52761E-02	12.23068114
2.52943E-02	13.15192501
2.53034E-02	13.77495821
2.53170E-02	15.00480092
2.53307E-02	16.79855696
2.53398E-02	18.47855145
2.53443E-02	19.52535413
2.53489E-02	20.75016809
2.53534E-02	22.19320802
2.53580E-02	23.90569857
2.53625E-02	25.94854384
2.53670E-02	28.41498024
2.53716E-02	31.40908873
2.53761E-02	35.06885759
2.53807E-02	39.56657408
2.53852E-02	45.10857483
2.53898E-02	51.91908497
2.53943E-02	60.16909455
2.53975E-02	66.89520058
2.54104E-02	98.1239454
2.54136E-02	104.6152875
2.54168E-02	109.0405325
2.54200E-02	110.7754867
2.54232E-02	109.5638552
2.54264E-02	105.5943695
2.54296E-02	99.43078612
2.54425E-02	68.58697606
2.54457E-02	61.75892576
2.54489E-02	55.5603625
2.54522E-02	50.12721183
2.54555E-02	45.42190591
2.54588E-02	41.36450799
2.54621E-02	37.87016247
2.54654E-02	34.85834269
2.54687E-02	32.25686346
2.54720E-02	30.00305922
2.54785E-02	26.33856522
2.54818E-02	24.8397391
2.54884E-02	22.35851936
2.54917E-02	21.33625546
2.54983E-02	19.60596868
2.55049E-02	18.20668494
2.55114E-02	17.06685748
2.55180E-02	16.12880591
2.55246E-02	15.34840611
2.55378E-02	14.13685709
2.55575E-02	12.89832889
2.55772E-02	12.07906138
2.56035E-02	11.35642138
2.56430E-02	10.69970661
2.56825E-02	10.30978681
2.57219E-02	10.0591892
2.57614E-02	9.888653391
2.58403E-02	9.676265029
2.59982E-02	9.476112248
2.61824E-02	9.375760822
2.64455E-02	9.309821666
2.67087E-02	9.276005572
2.68139E-02	9.266556363
2.73402E-02	9.234988626
2.77612E-02	9.218609535
2.83927E-02	9.19968682
2.92347E-02	9.178932869
2.96558E-02	9.169460797
3.13398E-02	9.134005972
3.17608E-02	9.125428863
3.19713E-02	9.121197023
3.20239E-02	9.120168027
3.20766E-02	9.119190514
3.21029E-02	9.118761812
3.21292E-02	9.118473158
3.21423E-02	9.11849224
3.21489E-02	9.118624209
3.21555E-02	9.118963863
3.21621E-02	9.119770198
3.21654E-02	9.120643397
3.21687E-02	9.122444596
3.21703E-02	9.124410441
3.21711E-02	9.12628988
