E(MeV)	Si-nat			
1.000000E-11	30.1066			
1.102400E-11	28.6821			
1.215040E-11	27.3284			
1.339460E-11	26.037			
1.476330E-11	24.8097			
1.627500E-11	23.6389			
1.793810E-11	22.5265			
1.977490E-11	21.4653			
2.179560E-11	20.457			
2.402740E-11	19.4953			
2.648260E-11	18.5818			
2.919430E-11	17.7105			
3.217750E-11	16.8828			
3.547230E-11	16.0937			
3.909700E-11	15.3442			
4.310050E-11	14.6296			
4.750460E-11	13.9511			
5.236900E-11	13.3043			
5.772020E-11	12.6903			
6.363060E-11	12.1052			
7.013260E-11	11.55			
7.731390E-11	11.021			
8.521420E-11	10.5191			
9.393980E-11	10.0412			
1.035390E-10	9.58795			
1.141410E-10	9.15652			
1.258040E-10	8.74758			
1.386860E-10	8.35853			
1.528580E-10	7.98996			
1.685100E-10	7.63955			
1.857290E-10	7.30781			
2.047470E-10	6.99265			
2.256690E-10	6.69453			
2.487770E-10	6.41155			
2.741980E-10	6.14415			
3.022750E-10	5.89058			
3.331620E-10	5.65314			
3.378620E-10	5.61845			
3.672770E-10	5.42759			
3.776400E-10	5.3631			
4.048070E-10	5.21442			
4.221010E-10	5.12373			
4.462580E-10	5.01229			
4.717970E-10	4.89954			
4.918580E-10	4.82159			
5.273430E-10	4.68979			
5.422230E-10	4.64114			
5.894290E-10	4.49376			
5.976290E-10	4.47122			
6.588240E-10	4.31078			
7.261450E-10	4.1627			
7.363900E-10	4.14114			
8.005010E-10	4.02294			
8.230880E-10	3.98316			
8.822990E-10	3.89247			
9.327920E-10	3.81874			
9.726430E-10	3.76848			
1.057320E-09	3.6669			
1.072030E-09	3.65163			
1.181800E-09	3.54354			
1.198250E-09	3.5281			
1.302560E-09	3.44383			
1.358210E-09	3.40109			
1.435940E-09	3.35001			
1.560960E-09	3.27214			
1.582670E-09	3.26062			
1.744740E-09	3.17943			
1.793970E-09	3.15603			
1.923020E-09	3.10399			
2.061750E-09	3.05111			
2.119930E-09	3.03234			
2.336550E-09	2.9666			
2.402480E-09	2.94768			
2.575810E-09	2.90633			
2.839010E-09	2.8473			
3.129720E-09	2.79649			
3.354860E-09	2.75954			
3.449530E-09	2.74666			
3.802750E-09	2.70183			
4.020380E-09	2.67594			
4.191330E-09	2.65935			
4.620500E-09	2.62064			
4.952890E-09	2.59264			
5.092640E-09	2.58314			
5.614120E-09	2.55034			
6.187790E-09	2.5168			
6.821400E-09	2.48938			
7.518430E-09	2.46153			
7.948710E-09	2.44557			
8.288300E-09	2.43559			
9.135230E-09	2.41281			
1.007060E-08	2.38966			
1.049890E-08	2.37985			
1.109970E-08	2.36914			
1.223630E-08	2.35071			
1.348660E-08	2.33218			
1.466080E-08	2.31618			
1.486760E-08	2.31401			
1.638680E-08	2.2996			
1.806480E-08	2.28519			
1.991070E-08	2.27076			
2.164420E-08	2.25837			
2.194950E-08	2.25656			
2.419240E-08	2.24453			
2.508750E-08	2.24004			
2.530000E-08	2.23905			
2.789060E-08	2.2292			
3.074060E-08	2.2195			
3.388840E-08	2.20987			
3.735120E-08	2.20031			
4.117580E-08	2.19076			
4.353230E-08	2.18544			
4.538330E-08	2.18237			
5.003050E-08	2.17563			
5.514280E-08	2.16909			
6.078920E-08	2.1627			
6.700090E-08	2.15644			
7.386160E-08	2.15023			
8.140900E-08	2.14404			
8.974500E-08	2.13784			
9.099360E-08	2.137			
9.891550E-08	2.13324			
1.090440E-07	2.1291			
1.201870E-07	2.12515			
1.324930E-07	2.12132			
1.480920E-07	2.11704			
1.655280E-07	2.11278			
1.824420E-07	2.1091			
1.983260E-07	2.10604			
2.155920E-07	2.10307			
2.376680E-07	2.0997			
2.619540E-07	2.09639			
2.887770E-07	2.09309			
2.969250E-07	2.09219			
3.227760E-07	2.09017			
3.557580E-07	2.08793			
3.867300E-07	2.08611			
4.203990E-07	2.08441			
4.634470E-07	2.08255			
5.108040E-07	2.08078			
5.631080E-07	2.07909			
6.294050E-07	2.07722			
6.937200E-07	2.07562			
7.647550E-07	2.07409			
8.429000E-07	2.07264			
9.292110E-07	2.07126			
1.024160E-06	2.06994			
1.129030E-06	2.06864			
1.244400E-06	2.0674			
1.371820E-06	2.06619			
1.491250E-06	2.06521			
1.643640E-06	2.06414			
1.837150E-06	2.06297			
2.025270E-06	2.06198			
2.232220E-06	2.06099			
2.495020E-06	2.0599			
2.750500E-06	2.05896			
3.074330E-06	2.0579			
3.341980E-06	2.0571			
3.632940E-06	2.05629			
3.949220E-06	2.0555			
4.352770E-06	2.05464			
4.731720E-06	2.0539			
4.865240E-06	2.05466			
5.363420E-06	2.05758			
5.911480E-06	2.06087			
6.426130E-06	2.06402			
6.985600E-06	2.06434			
7.593760E-06	2.06473			
8.607550E-06	2.06546			
9.356930E-06	2.06605			
1.003000E-05	2.06662			
1.121090E-05	2.06771			
1.253080E-05	2.069			
1.362180E-05	2.07012			
1.501660E-05	2.07158			
1.655100E-05	2.07321			
1.799200E-05	2.07478			
1.983430E-05	2.07683			
2.216950E-05	2.07951			
2.311210E-05	2.08061			
2.477950E-05	2.08092			
2.693690E-05	2.08135			
2.928200E-05	2.08184			
3.272950E-05	2.0826			
3.607390E-05	2.08337			
3.976780E-05	2.08425			
4.444970E-05	2.08542			
4.968300E-05	2.08677			
5.400840E-05	2.0879			
5.871040E-05	2.08916			
6.562260E-05	2.09102			
7.232810E-05	2.09285			
7.862500E-05	2.09459			
8.429740E-05	2.09617			
8.912170E-05	2.09752			
9.036160E-05	2.09749			
9.822850E-05	2.09729			
1.067800E-04	2.09708			
1.160770E-04	2.09687			
1.279630E-04	2.09661			
1.391030E-04	2.09638			
1.512130E-04	2.09615			
1.666650E-04	2.09588			
1.862870E-04	2.09554			
2.053620E-04	2.09523			
2.232410E-04	2.09495			
2.491930E-04	2.09455			
2.708880E-04	2.09423			
2.955520E-04	2.09387			
3.258150E-04	2.09344			
3.591080E-04	2.09298			
3.951860E-04	2.09249			
4.426730E-04	2.09186			
4.983860E-04	2.09113			
5.352040E-04	2.09066			
5.898930E-04	2.08997			
6.447420E-04	2.08928			
7.283200E-04	2.08824			
8.577730E-04	2.08664			
9.197230E-04	2.08588			
9.929430E-04	2.08499			
1.000000E-03	2.0849			
1.582840E-03	2.07834			
2.005000E-03	2.07359			
2.600000E-03	2.06726			
3.186500E-03	2.06043			
3.620300E-03	2.05487			
3.671380E-03	2.05426			
4.130300E-03	2.04886			
4.411650E-03	2.04561			
4.540300E-03	2.06306			
4.845800E-03	2.10468			
4.859400E-03	2.10652			
4.876900E-03	2.11243			
4.884670E-03	2.11505			
4.901200E-03	2.12063			
4.903140E-03	2.1213			
4.904110E-03	2.12164			
4.905080E-03	2.12199			
4.906060E-03	2.12235			
4.906790E-03	2.12263			
4.907510E-03	2.12293			
4.908360E-03	2.12328			
4.909070E-03	2.1236			
4.909780E-03	2.12392			
4.910850E-03	2.12443			
4.911920E-03	2.12495			
4.912990E-03	2.12549			
4.913700E-03	2.12587			
4.914410E-03	2.12626			
4.915130E-03	2.12667			
4.915660E-03	2.12699			
4.916190E-03	2.12733			
4.916730E-03	2.1277			
4.917260E-03	2.1281			
4.917800E-03	2.12853			
4.918330E-03	2.12899			
4.918870E-03	2.12949			
4.919400E-03	2.13003			
4.919970E-03	2.13022			
4.920540E-03	2.13046			
4.921120E-03	2.13073			
4.921880E-03	2.13114			
4.923980E-03	2.13234			
4.924740E-03	2.13273			
4.925500E-03	2.13307			
4.926160E-03	2.1333			
4.926830E-03	2.13347			
4.927490E-03	2.13356			
4.927950E-03	2.13357			
4.928150E-03	2.13385			
4.928810E-03	2.1347			
4.929480E-03	2.13545			
4.929810E-03	2.13579			
4.930470E-03	2.13639			
4.931040E-03	2.13683			
4.931750E-03	2.13729			
4.932460E-03	2.13764			
4.933170E-03	2.13791			
4.933650E-03	2.13806			
4.934600E-03	2.13828			
4.936500E-03	2.13865			
4.937450E-03	2.13889			
4.938160E-03	2.13911			
4.938800E-03	2.13935			
4.939400E-03	2.13961			
4.940000E-03	2.1399			
4.940600E-03	2.14023			
4.941200E-03	2.14058			
4.942000E-03	2.14109			
4.942800E-03	2.14163			
4.943020E-03	2.14178			
4.944000E-03	2.14536			
4.945200E-03	2.1498			
4.946400E-03	2.15426			
4.947100E-03	2.15688			
4.947200E-03	2.15768			
4.948000E-03	2.16408			
4.948600E-03	2.1689			
4.949200E-03	2.17374			
4.949800E-03	2.17861			
4.950400E-03	2.1835			
4.951000E-03	2.18842			
4.951480E-03	2.19242			
4.952050E-03	2.19713			
4.952620E-03	2.20188			
4.953190E-03	2.20664			
4.953760E-03	2.21143			
4.954330E-03	2.21624			
4.955180E-03	2.22348			
4.955250E-03	2.22407			
4.956030E-03	2.23219			
4.956890E-03	2.24106			
4.957460E-03	2.247			
4.958020E-03	2.25297			
4.958310E-03	2.25594			
4.958450E-03	2.25819			
4.958880E-03	2.2648			
4.959300E-03	2.27145			
4.959730E-03	2.27815			
4.959830E-03	2.27979			
4.960160E-03	2.28768			
4.960440E-03	2.29466			
4.960730E-03	2.30167			
4.961010E-03	2.30872			
4.961300E-03	2.31581			
4.961360E-03	2.3175			
4.961580E-03	2.32547			
4.961860E-03	2.33595			
4.962150E-03	2.34649			
4.962380E-03	2.35516			
4.962430E-03	2.35775			
4.962720E-03	2.37206			
4.963000E-03	2.38644			
4.963290E-03	2.4009			
4.963400E-03	2.40672			
4.963570E-03	2.41822			
4.963850E-03	2.43751			
4.964140E-03	2.45688			
4.964420E-03	2.47634			
4.964440E-03	2.47731			
4.964710E-03	2.50068			
4.964990E-03	2.52538			
4.965220E-03	2.54488			
4.965280E-03	2.55129			
4.965560E-03	2.58133			
4.965850E-03	2.61151			
4.965990E-03	2.62735			
4.966130E-03	2.64465			
4.966410E-03	2.681			
4.966700E-03	2.71753			
4.966770E-03	2.72701			
4.966980E-03	2.75909			
4.967270E-03	2.80255			
4.967550E-03	2.84599			
4.967550E-03	2.84627			
4.967840E-03	2.89714			
4.968120E-03	2.94826			
4.968330E-03	2.98582			
4.968400E-03	3.00151			
4.968690E-03	3.0601			
4.968970E-03	3.11898			
4.969110E-03	3.14662			
4.969260E-03	3.18098			
4.969540E-03	3.24611			
4.969620E-03	3.26472			
4.969830E-03	3.31549			
4.970120E-03	3.3866			
4.970410E-03	3.45806			
4.970660E-03	3.52207			
4.970690E-03	3.53017			
4.971130E-03	3.64262			
4.971560E-03	3.75585			
4.971990E-03	3.86986			
4.972290E-03	3.94968			
4.972420E-03	3.98215			
4.972990E-03	4.12547			
4.973170E-03	4.16939			
4.973570E-03	4.25918			
4.973760E-03	4.30156			
4.974340E-03	4.41715			
4.974430E-03	4.43127			
4.974930E-03	4.51226			
4.975520E-03	4.58367			
4.975720E-03	4.59965			
4.976110E-03	4.62852			
4.976400E-03	4.64064			
4.976540E-03	4.64166			
4.976960E-03	4.64376			
4.977010E-03	4.64182			
4.977490E-03	4.62217			
4.977520E-03	4.6205			
4.977960E-03	4.58298			
4.978090E-03	4.57179			
4.978440E-03	4.52746			
4.978650E-03	4.49965			
4.978910E-03	4.45583			
4.979390E-03	4.37436			
4.979400E-03	4.37215			
4.979860E-03	4.27662			
4.980150E-03	4.21582			
4.980310E-03	4.17865			
4.980740E-03	4.07944			
4.981160E-03	3.97831			
4.981590E-03	3.87531			
4.982010E-03	3.77056			
4.982400E-03	3.67358			
4.982440E-03	3.66497			
4.982860E-03	3.56595			
4.983270E-03	3.4698			
4.983500E-03	3.42088			
4.984140E-03	3.28381			
4.984790E-03	3.15779			
4.984990E-03	3.12351			
4.985440E-03	3.04464			
4.986310E-03	2.91289			
4.986690E-03	2.86403			
4.987180E-03	2.80132			
4.987330E-03	2.7846			
4.987910E-03	2.72274			
4.988050E-03	2.70784			
4.988340E-03	2.68135			
4.988770E-03	2.64273			
4.988920E-03	2.62982			
4.989200E-03	2.60865			
4.989610E-03	2.57865			
4.990020E-03	2.54936			
4.990220E-03	2.53587			
4.990300E-03	2.53116			
4.990580E-03	2.51552			
4.990850E-03	2.50019			
4.991120E-03	2.48516			
4.991400E-03	2.47043			
4.991690E-03	2.45519			
4.991960E-03	2.44155			
4.991980E-03	2.44046			
4.992270E-03	2.42819			
4.992560E-03	2.41622			
4.992850E-03	2.40453			
4.993140E-03	2.3931			
4.993430E-03	2.38194			
4.993730E-03	2.37102			
4.994020E-03	2.36032			
4.994310E-03	2.34984			
4.994560E-03	2.34077			
4.994580E-03	2.3402			
4.994830E-03	2.33327			
4.995080E-03	2.32646			
4.995330E-03	2.31978			
4.995580E-03	2.31321			
4.995830E-03	2.30675			
4.996070E-03	2.30038			
4.996320E-03	2.2941			
4.996570E-03	2.28791			
4.996820E-03	2.28179			
4.997070E-03	2.27574			
4.997170E-03	2.27329			
4.997320E-03	2.27063			
4.997560E-03	2.2662			
4.997810E-03	2.26182			
4.998060E-03	2.25749			
4.998310E-03	2.2532			
4.998480E-03	2.25037			
4.998810E-03	2.24474			
4.999140E-03	2.23918			
4.999470E-03	2.23367			
4.999770E-03	2.22861			
4.999800E-03	2.22829			
5.000080E-03	2.22462			
5.000510E-03	2.21916			
5.000940E-03	2.21375			
5.001360E-03	2.20838			
5.001790E-03	2.20305			
5.002080E-03	2.19951			
5.002640E-03	2.19246			
5.003210E-03	2.18545			
5.003780E-03	2.17846			
5.004630E-03	2.16801			
5.005490E-03	2.15759			
5.006620E-03	2.14373			
5.006720E-03	2.14251			
5.008900E-03	2.12358			
5.010200E-03	2.11228			
5.012310E-03	2.10394			
5.013130E-03	2.10074			
5.014020E-03	2.10011			
5.015160E-03	2.09933			
5.016290E-03	2.09856			
5.017430E-03	2.09782			
5.018000E-03	2.09745			
5.018280E-03	2.09743			
5.019110E-03	2.09736			
5.020210E-03	2.0973			
5.021320E-03	2.09725			
5.022420E-03	2.09721			
5.024640E-03	2.09715			
5.167500E-03	2.09439			
7.259900E-03	2.05616			
9.641600E-03	2.01144			
1.179500E-02	1.97183			
1.378800E-02	1.96784			
1.484800E-02	1.96608			
1.496560E-02	1.96585			
1.496970E-02	1.96585			
1.497170E-02	1.96586			
1.497330E-02	1.96588			
1.497480E-02	1.96591			
1.497590E-02	1.96594			
1.497690E-02	1.96598			
1.497790E-02	1.96604			
1.497900E-02	1.96611			
1.498000E-02	1.96619			
1.498090E-02	1.96617			
1.498180E-02	1.96616			
1.498310E-02	1.96616			
1.498440E-02	1.96618			
1.498530E-02	1.9662			
1.498700E-02	1.96627			
1.498960E-02	1.9664			
1.500100E-02	1.96703			
1.500450E-02	1.9672			
1.500710E-02	1.96728			
1.500950E-02	1.96733			
1.501250E-02	1.96734			
1.501700E-02	1.9673			
1.502150E-02	1.96722			
1.502380E-02	1.96714			
1.502600E-02	1.96701			
1.502750E-02	1.96688			
1.502830E-02	1.96679			
1.502970E-02	1.96657			
1.503090E-02	1.96636			
1.503200E-02	1.9661			
1.503310E-02	1.96613			
1.503410E-02	1.96613			
1.503520E-02	1.96609			
1.503680E-02	1.96597			
1.503840E-02	1.96579			
1.504100E-02	1.96543			
1.504370E-02	1.96506			
1.504530E-02	1.96488			
1.504630E-02	1.96477			
1.504740E-02	1.96469			
1.504850E-02	1.96464			
1.504940E-02	1.96461			
1.505030E-02	1.9646			
1.505120E-02	1.96461			
1.505210E-02	1.96463			
1.505340E-02	1.9647			
1.505470E-02	1.96479			
1.505600E-02	1.96491			
1.505780E-02	1.96508			
1.505950E-02	1.96528			
1.506300E-02	1.96569			
1.506580E-02	1.96603			
1.506650E-02	1.96602			
1.507000E-02	1.96598			
1.507170E-02	1.96597			
1.507350E-02	1.96597			
1.507520E-02	1.96598			
1.507660E-02	1.96601			
1.507700E-02	1.96602			
1.507800E-02	1.96592			
1.507910E-02	1.96581			
1.508080E-02	1.96567			
1.508270E-02	1.96552			
1.508460E-02	1.96538			
1.508840E-02	1.96513			
1.509610E-02	1.96465			
1.510080E-02	1.96436			
1.510270E-02	1.96425			
1.510420E-02	1.96419			
1.510510E-02	1.96417			
1.510610E-02	1.96415			
1.510700E-02	1.96416			
1.510770E-02	1.96418			
1.510850E-02	1.96422			
1.510920E-02	1.96429			
1.510990E-02	1.96437			
1.511060E-02	1.96448			
1.511130E-02	1.96462			
1.511200E-02	1.96479			
1.511270E-02	1.965			
1.511350E-02	1.96524			
1.511420E-02	1.96551			
1.511490E-02	1.96582			
1.511510E-02	1.96594			
1.511560E-02	1.96584			
1.511630E-02	1.96574			
1.511700E-02	1.96566			
1.511800E-02	1.96561			
1.511890E-02	1.96561			
1.511990E-02	1.96564			
1.512130E-02	1.96576			
1.512320E-02	1.96599			
1.513040E-02	1.96711			
1.513320E-02	1.96744			
1.513510E-02	1.96755			
1.513700E-02	1.96753			
1.513870E-02	1.96737			
1.514010E-02	1.96712			
1.514140E-02	1.96674			
1.514280E-02	1.9662			
1.514350E-02	1.96584			
1.514420E-02	1.96589			
1.514490E-02	1.96585			
1.514520E-02	1.96595			
1.514560E-02	1.96603			
1.514660E-02	1.96615			
1.514760E-02	1.96613			
1.514870E-02	1.96595			
1.514900E-02	1.96584			
1.514950E-02	1.96612			
1.515060E-02	1.96653			
1.515170E-02	1.96678			
1.515270E-02	1.96689			
1.515380E-02	1.96687			
1.515540E-02	1.96665			
1.515750E-02	1.96616			
1.516020E-02	1.96548			
1.516150E-02	1.96522			
1.516250E-02	1.9651			
1.516330E-02	1.96506			
1.516410E-02	1.96508			
1.516490E-02	1.96516			
1.516570E-02	1.9653			
1.516630E-02	1.96544			
1.516690E-02	1.96563			
1.516750E-02	1.96584			
1.516760E-02	1.96581			
1.516820E-02	1.96556			
1.516880E-02	1.96534			
1.516940E-02	1.96515			
1.517010E-02	1.965			
1.517070E-02	1.96487			
1.517130E-02	1.96478			
1.517190E-02	1.96471			
1.517290E-02	1.96464			
1.517380E-02	1.96461			
1.517480E-02	1.96461			
1.517600E-02	1.96465			
1.517720E-02	1.96472			
1.517850E-02	1.96481			
1.517970E-02	1.96492			
1.518100E-02	1.96505			
1.518230E-02	1.96519			
1.518350E-02	1.96535			
1.518470E-02	1.96554			
1.518600E-02	1.96574			
1.518710E-02	1.96559			
1.518820E-02	1.96545			
1.518920E-02	1.96533			
1.519090E-02	1.96518			
1.519250E-02	1.96505			
1.519460E-02	1.9649			
1.519790E-02	1.96471			
1.522270E-02	1.96338			
1.522700E-02	1.96317			
1.522910E-02	1.96309			
1.523070E-02	1.96307			
1.523180E-02	1.96308			
1.523290E-02	1.96312			
1.523400E-02	1.96319			
1.523510E-02	1.9633			
1.523610E-02	1.96346			
1.523720E-02	1.96367			
1.523830E-02	1.96393			
1.523940E-02	1.96425			
1.524040E-02	1.96463			
1.524150E-02	1.96506			
1.524260E-02	1.96555			
1.524290E-02	1.96569			
1.524370E-02	1.96533			
1.524480E-02	1.96491			
1.524580E-02	1.96457			
1.524690E-02	1.96432			
1.524770E-02	1.9642			
1.524850E-02	1.96416			
1.524930E-02	1.96421			
1.525010E-02	1.96437			
1.525100E-02	1.96465			
1.525180E-02	1.96507			
1.525260E-02	1.96565			
1.525260E-02	1.9657			
1.525340E-02	1.96497			
1.525420E-02	1.96438			
1.525500E-02	1.96397			
1.525580E-02	1.96376			
1.525660E-02	1.96374			
1.525740E-02	1.96392			
1.525820E-02	1.9643			
1.525910E-02	1.96486			
1.525990E-02	1.96561			
1.525990E-02	1.96568			
1.526070E-02	1.96496			
1.526190E-02	1.96414			
1.526310E-02	1.96372			
1.526430E-02	1.96373			
1.526560E-02	1.9642			
1.526680E-02	1.96515			
1.526730E-02	1.96572			
1.526800E-02	1.96508			
1.526910E-02	1.9646			
1.527020E-02	1.96459			
1.527140E-02	1.96507			
1.527210E-02	1.9657			
1.527250E-02	1.96532			
1.527420E-02	1.96453			
1.527590E-02	1.96483			
1.527700E-02	1.96578			
1.527770E-02	1.96511			
1.527980E-02	1.96453			
1.528460E-02	1.96607			
1.528640E-02	1.96546			
1.528660E-02	1.96596			
1.528800E-02	1.96717			
1.528950E-02	1.96654			
1.529010E-02	1.96544			
1.529050E-02	1.96622			
1.529150E-02	1.96711			
1.529250E-02	1.96673			
1.529320E-02	1.96547			
1.529340E-02	1.96571			
1.529430E-02	1.96564			
1.529440E-02	1.96554			
1.529480E-02	1.96617			
1.529580E-02	1.96674			
1.529670E-02	1.9659			
1.529690E-02	1.96544			
1.529760E-02	1.96667			
1.529860E-02	1.96668			
1.529930E-02	1.96543			
1.529950E-02	1.96593			
1.530040E-02	1.96687			
1.530140E-02	1.96623			
1.530180E-02	1.96538			
1.530230E-02	1.96632			
1.530330E-02	1.96652			
1.530420E-02	1.96556			
1.530560E-02	1.9661			
1.530870E-02	1.96483			
1.531000E-02	1.96529			
1.531030E-02	1.96567			
1.531100E-02	1.96437			
1.531190E-02	1.96367			
1.531250E-02	1.96372			
1.531320E-02	1.96429			
1.531380E-02	1.96537			
1.531390E-02	1.9656			
1.531450E-02	1.96462			
1.531520E-02	1.96397			
1.531580E-02	1.96379			
1.531650E-02	1.96408			
1.531710E-02	1.9648			
1.531760E-02	1.9656			
1.531780E-02	1.9653			
1.531850E-02	1.9646			
1.531900E-02	1.96436			
1.531950E-02	1.96431			
1.532000E-02	1.96445			
1.532050E-02	1.96476			
1.532100E-02	1.96524			
1.532130E-02	1.96556			
1.532150E-02	1.96524			
1.532200E-02	1.96475			
1.532260E-02	1.96437			
1.532310E-02	1.96416			
1.532370E-02	1.96411			
1.532420E-02	1.96421			
1.532480E-02	1.96445			
1.532540E-02	1.96483			
1.532590E-02	1.96533			
1.532610E-02	1.96553			
1.532650E-02	1.96529			
1.532710E-02	1.96504			
1.532760E-02	1.96488			
1.532820E-02	1.96481			
1.532880E-02	1.96482			
1.532930E-02	1.9649			
1.532990E-02	1.96504			
1.533040E-02	1.96525			
1.533100E-02	1.96551			
1.533180E-02	1.9651			
1.533260E-02	1.96477			
1.533340E-02	1.96451			
1.533430E-02	1.96432			
1.533510E-02	1.96417			
1.533630E-02	1.96402			
1.533750E-02	1.96395			
1.533910E-02	1.96392			
1.534080E-02	1.96394			
1.534320E-02	1.96404			
1.534720E-02	1.96426			
1.535050E-02	1.96447			
1.535210E-02	1.9646			
1.535380E-02	1.96476			
1.535540E-02	1.96494			
1.535700E-02	1.96516			
1.535830E-02	1.96536			
1.535850E-02	1.96539			
1.535950E-02	1.9653			
1.536120E-02	1.96519			
1.536290E-02	1.9651			
1.536540E-02	1.96501			
1.536880E-02	1.96492			
1.540090E-02	1.96428			
1.540590E-02	1.96419			
1.540930E-02	1.96414			
1.541310E-02	1.9641			
1.541730E-02	1.96409			
1.542770E-02	1.96409			
1.546960E-02	1.96411			
1.547800E-02	1.96413			
1.548480E-02	1.96416			
1.558750E-02	1.96476			
1.562400E-02	1.96498			
1.565160E-02	1.96469			
1.675920E-02	1.95331			
1.824200E-02	1.93408			
2.078620E-02	1.90135			
2.172600E-02	1.88365			
2.554000E-02	1.81249			
2.818840E-02	1.78726			
2.833000E-02	1.78592			
2.933490E-02	1.77677			
3.074000E-02	1.76397			
3.158570E-02	1.75594			
3.159080E-02	1.7559			
3.159420E-02	1.75587			
3.159670E-02	1.75586			
3.159920E-02	1.75585			
3.160090E-02	1.75586			
3.160260E-02	1.75587			
3.160430E-02	1.75588			
3.160600E-02	1.7559			
