E(MeV)	pendfb7/Sm149:1	
1.00000E-11	1216402.8	
1.02999E-11	1198569.87	
1.06087E-11	1181004.06	
1.09269E-11	1163687.85	
1.12544E-11	1146636.28	
1.15920E-11	1129825.14	
1.19395E-11	1113269.43	
1.22976E-11	1096947.91	
1.26662E-11	1080874.39	
1.30462E-11	1065026.19	
1.34372E-11	1049422.9	
1.38403E-11	1034036.91	
1.42552E-11	1018887.48	
1.46827E-11	1003951.45	
1.51229E-11	989241.492	
1.55765E-11	974738.316	
1.60434E-11	960459.049	
1.65246E-11	946379.331	
1.70199E-11	932515.027	
1.75304E-11	918846.635	
1.80559E-11	905385.032	
1.85975E-11	892114.043	
1.91550E-11	879045.382	
1.97295E-11	866161.485	
2.03209E-11	853473.084	
2.09305E-11	840963.056	
2.15579E-11	828645.816	
2.22045E-11	816500.823	
2.28701E-11	804541.903	
2.35561E-11	792750.404	
2.42622E-11	781140.305	
2.49899E-11	769693.146	
2.57390E-11	758420.594	
2.65110E-11	747307.34	
2.73057E-11	736362.952	
2.74215E-11	734837.413	
2.81247E-11	725573.727	
2.83632E-11	722567.855	
2.89678E-11	714948.111	
2.93372E-11	710494.534	
2.98367E-11	704472.576	
3.03447E-11	698613.695	
3.07311E-11	694157.355	
3.13868E-11	686922.534	
3.16528E-11	683987.625	
3.24646E-11	675419.524	
3.26017E-11	673972.541	
3.35795E-11	664099.138	
3.45861E-11	654376.08	
3.47327E-11	653021.43	
3.56235E-11	644790.219	
3.59255E-11	642120.495	
3.66913E-11	635350.861	
3.71592E-11	631394.306	
3.77919E-11	626044.324	
3.84353E-11	620839.326	
3.89247E-11	616880.25	
3.97553E-11	610452.657	
4.00923E-11	607844.842	
4.11205E-11	600233.229	
4.12941E-11	598948.121	
4.25327E-11	590176.147	
4.38076E-11	581538.852	
4.39933E-11	580335.328	
4.51216E-11	573022.973	
4.55041E-11	570651.544	
4.64742E-11	564637.24	
4.70668E-11	561122.424	
4.78681E-11	556369.876	
4.86831E-11	551745.668	
4.93030E-11	548228.509	
5.03550E-11	542518.731	
5.07818E-11	540202.305	
5.20843E-11	533439.541	
5.23041E-11	532298.333	
5.38729E-11	524506.064	
5.54878E-11	516832.834	
5.57230E-11	515763.743	
5.71521E-11	509267.978	
5.76366E-11	507161.204	
5.88653E-11	501818.508	
5.96159E-11	498696.329	
6.06310E-11	494474.035	
6.16632E-11	490366.659	
6.24484E-11	487242.225	
6.37809E-11	482170.092	
6.43215E-11	480112.353	
6.59712E-11	474105.025	
6.62496E-11	473091.262	
6.82368E-11	466169.186	
7.02822E-11	459353.289	
7.05801E-11	458403.669	
7.23903E-11	452633.398	
7.30040E-11	450761.984	
7.45603E-11	446016.312	
7.55110E-11	443242.978	
7.67967E-11	439492.479	
7.81042E-11	435843.82	
7.90987E-11	433068.667	
8.07864E-11	428563.491	
8.14712E-11	426735.513	
8.35607E-11	421399.7	
8.39134E-11	420499.054	
8.64304E-11	414350.631	
8.90212E-11	408296.517	
8.93985E-11	407453.097	
9.16913E-11	402327.86	
9.24686E-11	400665.699	
9.44399E-11	396450.406	
9.56441E-11	393987.1	
9.72725E-11	390656.122	
9.89287E-11	387414.837	
1.00188E-10	384950.362	
1.02326E-10	380948.832	
1.03193E-10	379326.168	
1.05840E-10	374586.686	
1.06287E-10	373786.345	
1.09475E-10	368325.364	
1.12756E-10	362948.627	
1.13234E-10	362199.497	
1.16139E-10	357646.825	
1.17123E-10	356171.487	
1.19620E-10	352427.747	
1.21145E-10	350240.39	
1.23208E-10	347281.429	
1.25834E-10	343678.44	
1.26901E-10	342214.503	
1.30707E-10	337219.474	
1.34626E-10	332299.992	
1.35767E-10	330929.536	
1.38664E-10	327450.027	
1.41024E-10	324738.801	
1.42820E-10	322675.559	
1.46483E-10	318650.35	
1.47104E-10	317967.959	
1.51513E-10	313332.789	
1.52156E-10	312686.293	
1.56058E-10	308763.165	
1.58045E-10	306851.912	
1.60736E-10	304263.555	
1.64166E-10	301107.693	
1.65557E-10	299827.895	
1.70520E-10	295459.898	
1.75635E-10	291153.681	
1.77123E-10	289955.264	
1.80899E-10	286914.189	
1.83979E-10	284541.774	
1.86325E-10	282734.774	
1.91104E-10	279213.513	
1.91911E-10	278618.912	
1.97667E-10	274561.696	
1.98501E-10	273999.376	
2.03592E-10	270566.869	
2.06188E-10	268892.74	
2.09699E-10	266628.588	
2.14169E-10	263871.205	
2.15985E-10	262751.004	
2.22463E-10	258928.436	
2.29132E-10	255164.508	
2.31074E-10	254115.998	
2.36004E-10	251454.292	
2.41036E-10	248855.746	
2.43079E-10	247800.757	
2.50370E-10	244199.245	
2.51427E-10	243699.829	
2.57875E-10	240653.325	
2.62266E-10	238668.864	
2.65610E-10	237157.618	
2.73572E-10	233715.954	
2.81777E-10	230323.278	
2.85365E-10	228904.267	
2.90224E-10	226982.633	
2.97667E-10	224167.019	
2.98929E-10	223689.628	
3.07890E-10	220447.443	
3.10500E-10	219544.131	
3.17125E-10	217251.293	
3.23885E-10	215013.642	
3.26631E-10	214104.7	
3.36428E-10	211002.794	
3.39280E-10	210139.141	
3.46513E-10	207948.872	
3.55400E-10	205374.689	
3.56906E-10	204938.476	
3.67605E-10	201974.572	
3.72292E-10	200732.61	
3.78631E-10	199052.941	
3.89981E-10	196176.589	
4.01678E-10	193341.275	
4.08517E-10	191755.821	
4.13719E-10	190549.892	
4.26128E-10	187798.361	
4.27926E-10	187417.045	
4.38901E-10	185089.547	
4.50158E-10	182806.431	
4.52066E-10	182419.465	
4.65617E-10	179790.791	
4.73545E-10	178319.965	
4.79583E-10	177199.805	
4.93959E-10	174649.003	
4.98146E-10	173938.49	
5.08775E-10	172134.845	
5.24026E-10	169659.704	
5.39744E-10	167220.166	
5.53587E-10	165165.303	
5.55923E-10	164818.554	
5.72598E-10	162451.508	
5.84805E-10	160794.274	
5.89762E-10	160121.323	
6.07452E-10	157824.682	
6.17794E-10	156540.642	
6.25661E-10	155563.915	
6.44427E-10	153335.746	
6.52633E-10	152403.969	
6.63744E-10	151142.363	
6.83653E-10	148980.685	
6.92358E-10	148076.795	
7.04146E-10	146852.809	
7.25267E-10	144755.712	
7.34502E-10	143878.849	
7.47007E-10	142691.526	
7.69413E-10	140657.277	
7.79211E-10	139806.615	
7.92477E-10	138654.888	
8.16247E-10	136681.643	
8.30145E-10	135578.414	
8.40715E-10	134739.383	
8.65932E-10	132825.411	
8.84392E-10	131485.685	
8.91889E-10	130941.607	
9.18641E-10	129085.269	
9.46178E-10	127258.256	
9.74558E-10	125457.965	
1.00377E-09	123686.145	
1.01228E-09	123192.734	
1.03388E-09	121940.304	
1.06487E-09	120222.163	
1.08759E-09	119017.926	
1.09681E-09	118529.246	
1.12969E-09	116863.3	
1.16357E-09	115221.88	
1.16848E-09	114994.45	
1.19845E-09	113606.651	
1.23440E-09	112015.305	
1.26072E-09	110901.643	
1.27140E-09	110449.392	
1.30954E-09	108906.712	
1.34879E-09	107388.806	
1.36599E-09	106753.102	
1.38925E-09	105893.505	
1.43089E-09	104422.249	
1.47381E-09	102972.992	
1.48003E-09	102772.21	
1.51799E-09	101547.151	
1.56352E-09	100142.692	
1.61039E-09	98761.0361	
1.65869E-09	97400.2173	
1.70841E-09	96061.5421	
1.75966E-09	94743.1361	
1.81240E-09	93446.3233	
1.86677E-09	92169.2282	
1.92272E-09	90913.1478	
1.93087E-09	90738.3736	
1.98039E-09	89676.2854	
1.98875E-09	89505.0252	
2.03976E-09	88459.8826	
2.05705E-09	88121.3909	
2.10094E-09	87262.1925	
2.12769E-09	86761.8835	
2.16392E-09	86084.4086	
2.20076E-09	85426.2123	
2.22882E-09	84924.8698	
2.27634E-09	84114.0398	
2.28599E-09	83949.3789	
2.29563E-09	83784.7385	
2.35451E-09	82825.0666	
2.36449E-09	82662.3938	
2.43537E-09	81558.9423	
2.50842E-09	80472.8264	
2.51900E-09	80322.4946	
2.54036E-09	80019.275	
2.58361E-09	79405.1267	
2.60551E-09	79108.1586	
2.66110E-09	78354.3417	
2.69499E-09	77915.6239	
2.74087E-09	77321.5216	
2.78754E-09	76744.6112	
2.82308E-09	76305.1846	
2.83500E-09	76165.0194	
2.88327E-09	75597.2209	
2.92003E-09	75164.7257	
2.98228E-09	74470.2786	
3.02031E-09	74046.0467	
3.08470E-09	73364.928	
3.12403E-09	72948.8287	
3.17722E-09	72415.3599	
3.19063E-09	72280.8654	
3.23132E-09	71872.8183	
3.30020E-09	71217.8451	
3.34228E-09	70817.7264	
3.41354E-09	70175.555	
3.45706E-09	69783.2512	
3.53076E-09	69153.716	
3.57579E-09	68769.1392	
3.59088E-09	68646.974	
3.65202E-09	68152.0938	
3.69858E-09	67775.1502	
3.76156E-09	67292.187	
3.82560E-09	66801.0097	
3.87431E-09	66447.077	
3.95698E-09	65846.4675	
3.99052E-09	65615.619	
4.07559E-09	65030.1636	
4.09286E-09	64911.2878	
4.11014E-09	64798.7036	
4.23342E-09	63995.2594	
4.36032E-09	63212.1857	
4.37880E-09	63098.1442	
4.49111E-09	62442.1144	
4.52918E-09	62219.7206	
4.62573E-09	61685.8905	
4.64534E-09	61577.4935	
4.68472E-09	61359.7881	
4.76448E-09	60942.5226	
4.84560E-09	60518.1581	
4.90730E-09	60212.802	
5.01200E-09	59694.6206	
5.05449E-09	59495.7609	
5.18412E-09	58888.9968	
5.20600E-09	58792.1649	
5.31708E-09	58300.5797	
5.36215E-09	58101.1117	
5.52289E-09	57428.7346	
5.54630E-09	57330.8121	
5.71256E-09	56673.6288	
5.73677E-09	56577.9187	
5.90873E-09	55935.7996	
5.93378E-09	55842.2851	
6.08596E-09	55305.6731	
6.11165E-09	55215.1062	
6.13755E-09	55123.767	
6.34833E-09	54422.2532	
6.56634E-09	53737.596	
6.59405E-09	53655.5092	
6.79184E-09	53069.6874	
6.90747E-09	52746.8013	
6.93663E-09	52665.3964	
7.02508E-09	52418.4274	
7.26633E-09	51783.7376	
7.29700E-09	51707.7562	
7.51587E-09	51165.5162	
7.77398E-09	50563.6966	
7.87297E-09	50346.611	
8.00701E-09	50052.6628	
8.04095E-09	49978.2416	
8.31709E-09	49409.0972	
8.60271E-09	48856.2241	
8.86058E-09	48387.8221	
8.89814E-09	48319.6095	
9.20371E-09	47799.2734	
9.24256E-09	47737.3214	
9.51979E-09	47295.2	
9.76394E-09	46930.9127	
9.84671E-09	46807.4186	
9.93018E-09	46691.0435	
1.01849E-08	46335.9936	
1.05346E-08	45880.9701	
1.05791E-08	45827.071	
1.08964E-08	45442.4162	
1.09424E-08	45390.5518	
1.10351E-08	45285.9458	
1.12706E-08	45020.4425	
1.16084E-08	44666.6955	
1.16577E-08	44615.177	
1.19566E-08	44325.0855	
1.20580E-08	44226.7447	
1.21089E-08	44181.0957	
1.23151E-08	43996.1916	
1.24721E-08	43855.3503	
1.26844E-08	43679.7518	
1.29004E-08	43501.1639	
1.30647E-08	43376.2995	
1.32313E-08	43249.6662	
1.33434E-08	43164.4199	
1.34565E-08	43085.6727	
1.38017E-08	42845.4023	
1.38599E-08	42808.406	
1.42756E-08	42544.3746	
1.43359E-08	42509.6294	
1.47659E-08	42261.7108	
1.52730E-08	41997.746	
1.54674E-08	41906.9561	
1.57975E-08	41752.9222	
1.63400E-08	41527.6851	
1.65480E-08	41451.6141	
1.69011E-08	41322.5611	
1.74815E-08	41138.1004	
1.76297E-08	41097.8164	
1.77791E-08	41057.2072	
1.80819E-08	40974.9533	
1.83897E-08	40904.9608	
1.87028E-08	40833.7765	
1.90212E-08	40775.0794	
1.93451E-08	40715.383	
1.96745E-08	40668.3609	
1.97575E-08	40656.5059	
2.00094E-08	40620.5666	
2.03501E-08	40585.7135	
2.06966E-08	40550.2672	
2.07839E-08	40544.7593	
2.10490E-08	40528.0799	
2.14074E-08	40505.5254	
2.17718E-08	40498.2758	
2.18637E-08	40496.4481	
2.23302E-08	40487.2268	
2.24245E-08	40489.3478	
2.29029E-08	40500.1151	
2.30971E-08	40504.508	
2.31118E-08	40504.8421	
2.37894E-08	40545.1816	
2.38903E-08	40551.1845	
2.39055E-08	40552.0961	
2.45030E-08	40609.2742	
2.47265E-08	40630.6653	
2.52237E-08	40692.3167	
2.52687E-08	40698.4367	
2.53000E-08	40702.6908	
2.60589E-08	40820.7006	
2.61688E-08	40837.8042	
2.62798E-08	40858.9623	
2.68400E-08	40965.9089	
2.70675E-08	41009.3415	
2.72970E-08	41060.7117	
2.75284E-08	41112.5494	
2.78794E-08	41191.187	
2.82344E-08	41281.6772	
2.87151E-08	41404.281	
2.89585E-08	41473.9233	
2.92040E-08	41544.1562	
2.95764E-08	41650.7553	
2.97012E-08	41690.4009	
3.02069E-08	41851.0058	
3.04630E-08	41932.3702	
3.11130E-08	42159.5314	
3.12443E-08	42205.4457	
3.13767E-08	42251.749	
3.20456E-08	42507.2106	
3.23173E-08	42611.0025	
3.28675E-08	42839.3479	
3.30068E-08	42897.1609	
3.32866E-08	43013.327	
3.35688E-08	43139.9912	
3.39962E-08	43331.8683	
3.42844E-08	43461.283	
3.48681E-08	43742.1555	
3.50159E-08	43813.2928	
3.51637E-08	43884.4307	
3.56121E-08	44113.9373	
3.57624E-08	44190.8708	
3.60655E-08	44346.0971	
3.63713E-08	44512.2411	
3.66796E-08	44679.7932	
3.69905E-08	44848.8265	
3.71473E-08	44939.1424	
3.76203E-08	45211.622	
3.79392E-08	45395.3906	
3.84230E-08	45690.3987	
3.87487E-08	45889.0773	
3.89123E-08	45988.8357	
3.92421E-08	46201.5287	
3.95748E-08	46416.0895	
3.99102E-08	46632.4686	
4.00794E-08	46747.1754	
4.04192E-08	46977.6302	
4.07618E-08	47210.0385	
4.09338E-08	47332.1074	
4.11073E-08	47455.2483	
4.16308E-08	47826.7583	
4.18072E-08	47957.71	
4.23396E-08	48352.9075	
4.25190E-08	48486.1297	
4.26985E-08	48625.3859	
4.28795E-08	48765.8669	
4.34255E-08	49189.6907	
4.36095E-08	49338.997	
4.39792E-08	49638.9614	
4.43520E-08	49941.4689	
4.45392E-08	50100.2123	
4.51071E-08	50581.8385	
4.52975E-08	50743.3283	
4.58751E-08	51255.1889	
4.62640E-08	51599.8982	
4.66562E-08	51963.0435	
4.72503E-08	52513.2984	
4.74505E-08	52707.0622	
4.80548E-08	53291.7932	
4.82584E-08	53488.908	
4.90801E-08	54316.0775	
4.92872E-08	54532.0817	
4.99157E-08	55187.4346	
5.01264E-08	55414.9792	
5.07656E-08	56105.3443	
5.14120E-08	56828.5137	
5.16299E-08	57072.2972	
5.20676E-08	57579.436	
5.22873E-08	57834.0743	
5.25089E-08	58090.9288	
5.27306E-08	58356.8931	
5.29541E-08	58625.1112	
5.34029E-08	59163.9408	
5.36283E-08	59444.0759	
5.40829E-08	60009.2186	
5.43122E-08	60294.1862	
5.50038E-08	61184.5001	
5.52369E-08	61484.6953	
5.57051E-08	62108.8667	
5.61773E-08	62738.4689	
5.64144E-08	63065.6781	
5.66536E-08	63395.7336	
5.71338E-08	64058.6438	
5.73749E-08	64403.1604	
5.78613E-08	65098.0327	
5.81066E-08	65448.4958	
5.85991E-08	66176.6578	
5.90959E-08	66911.1602	
5.93453E-08	67292.5222	
5.98484E-08	68061.8842	
6.01020E-08	68449.8257	
6.06115E-08	69255.2969	
6.08673E-08	69659.7312	
6.11253E-08	70067.6892	
6.13833E-08	70489.0417	
6.16435E-08	70913.966	
6.21660E-08	71767.6098	
6.24284E-08	72209.9456	
6.32245E-08	73552.2849	
6.37604E-08	74484.2151	
6.40295E-08	74952.1468	
6.43009E-08	75424.1484	
6.48460E-08	76400.2921	
6.53957E-08	77384.9201	
6.56717E-08	77893.2266	
6.65091E-08	79435.7373	
6.73560E-08	81037.0364	
6.76415E-08	81576.9479	
6.82149E-08	82687.4339	
6.85028E-08	83245.124	
6.87931E-08	83807.5424	
6.90835E-08	84381.9973	
6.96691E-08	85540.8521	
6.99644E-08	86125.192	
7.02597E-08	86721.4425	
7.07064E-08	87623.4023	
7.08553E-08	87924.0555	
7.11556E-08	88530.5654	
7.14559E-08	89137.0752	
7.16074E-08	89448.3994	
7.20617E-08	90382.3719	
7.25198E-08	91324.4248	
7.29805E-08	92271.8011	
7.32886E-08	92905.1591	
7.34439E-08	93226.9718	
7.39098E-08	94192.4097	
7.43797E-08	95166.0298	
7.48523E-08	96145.1529	
7.53275E-08	97129.9054	
7.58054E-08	98120.205	
7.62874E-08	99118.9011	
7.67720E-08	100123.242	
7.72595E-08	101115.05	
7.77496E-08	102112.449	
7.82439E-08	103118.304	
7.84087E-08	103453.586	
7.87410E-08	104111.539	
7.90734E-08	104769.402	
7.97437E-08	106096.28	
8.00817E-08	106744.397	
8.04197E-08	107392.397	
8.07605E-08	108045.889	
8.11014E-08	108676.116	
8.17889E-08	109946.963	
8.21355E-08	110559.04	
8.28318E-08	111787.998	
8.31814E-08	112376.949	
8.35340E-08	112970.696	
8.38865E-08	113538.832	
8.42421E-08	114111.6	
8.45976E-08	114655.961	
8.49562E-08	115204.727	
8.53148E-08	115722.21	
8.56764E-08	116243.841	
8.60380E-08	116731.249	
8.64027E-08	117222.526	
8.67673E-08	117676.597	
8.71351E-08	118134.23	
8.75029E-08	118551.66	
8.78737E-08	118972.315	
8.82446E-08	119349.784	
8.86186E-08	119730.11	
8.89927E-08	120064.31	
8.93699E-08	120400.973	
8.97471E-08	120694.962	
8.99373E-08	120843.031	
9.01274E-08	120971.919	
9.03176E-08	121100.807	
9.05078E-08	121229.54	
9.06996E-08	121339.375	
9.08915E-08	121449.21	
9.10833E-08	121558.883	
9.12751E-08	121647.963	
9.14685E-08	121737.799	
9.16619E-08	121827.465	
9.18554E-08	121895.834	
9.20488E-08	121964.204	
9.22439E-08	122032.975	
9.24390E-08	122079.792	
9.26340E-08	122126.608	
9.28291E-08	122173.242	
9.32226E-08	122210.631	
9.36160E-08	122247.644	
9.37152E-08	122256.976	
9.38144E-08	122250.788	
9.40128E-08	122238.219	
9.44096E-08	122213.08	
9.48098E-08	122135.88	
9.50057E-08	122098.07	
9.50098E-08	122096.791	
9.52099E-08	122034.045	
9.56089E-08	121908.916	
9.56135E-08	121906.943	
9.60170E-08	121731.366	
9.62155E-08	121645.011	
9.62205E-08	121642.23	
9.64240E-08	121528.976	
9.66275E-08	121415.722	
9.68272E-08	121304.389	
9.68309E-08	121301.836	
9.71732E-08	121068.301	
9.72414E-08	121021.688	
9.74903E-08	120851.579	
9.78587E-08	120553.977	
9.78875E-08	120530.731	
9.81101E-08	120350.735	
9.84796E-08	120008.191	
9.85085E-08	119981.339	
9.87334E-08	119772.664	
9.91348E-08	119353.338	
9.93602E-08	119117.668	
9.97647E-08	118648.587	
9.99906E-08	118386.307	
1.00398E-07	117867.772	
1.00424E-07	117834.916	
1.00626E-07	117577.046	
1.01035E-07	117012.034	
1.01061E-07	116975.493	
1.01266E-07	116692.983	
1.01489E-07	116360.614	
1.01677E-07	116079.965	
1.01909E-07	115735.553	
1.01918E-07	115720.313	
1.02323E-07	115075.456	
1.02349E-07	115034.32	
1.02555E-07	114706.48	
1.02782E-07	114322.921	
1.02973E-07	114000.354	
1.03108E-07	113771.89	
1.03207E-07	113604.553	
1.03434E-07	113199.568	
1.03626E-07	112856.916	
1.03763E-07	112612.994	
1.03863E-07	112434.834	
1.04092E-07	112006.079	
1.04285E-07	111644.047	
1.04422E-07	111388.514	
1.04522E-07	111199.848	
1.04753E-07	110748.153	
1.04948E-07	110367.516	
1.05085E-07	110099.328	
1.05185E-07	109902.349	
1.05418E-07	109428.6	
1.05614E-07	109030.185	
1.05753E-07	108748.044	
1.05854E-07	108541.395	
1.06087E-07	108050.542	
1.06284E-07	107635.236	
1.06424E-07	107339.639	
1.06527E-07	107123.736	
1.06761E-07	106610.594	
1.06960E-07	106177.307	
1.07100E-07	105871.524	
1.07430E-07	105150.226	
1.07440E-07	105127.369	
1.07639E-07	104675.647	
1.07780E-07	104357.402	
1.08122E-07	103582.94	
1.08340E-07	103088.236	
1.08552E-07	102595.278	
1.08579E-07	102531.351	
1.09038E-07	101460.252	
1.09259E-07	100946.389	
1.09472E-07	100437.081	
1.09500E-07	100371.038	
1.09963E-07	99264.4598	
1.10185E-07	98733.5753	
1.10400E-07	98208.0496	
1.10660E-07	97571.4311	
1.11336E-07	95920.2705	
1.11588E-07	95303.7738	
1.12280E-07	93578.8872	
1.12783E-07	92323.3383	
1.13488E-07	90565.1847	
1.13498E-07	90538.4112	
1.13709E-07	90009.2544	
1.13980E-07	89330.7602	
1.14461E-07	88123.0311	
1.14946E-07	86905.0639	
1.15159E-07	86369.0782	
1.15431E-07	85687.0471	
1.15920E-07	84458.6717	
1.16398E-07	83257.7584	
1.16409E-07	83230.616	
1.16903E-07	82006.3613	
1.17396E-07	80782.1066	
1.17883E-07	79574.9626	
1.17894E-07	79547.854	
1.18391E-07	78330.3427	
1.18882E-07	77129.8492	
1.19114E-07	76570.4166	
1.19395E-07	75892.9563	
1.19890E-07	74699.9747	
1.20631E-07	72944.2046	
1.20906E-07	72291.8262	
1.21410E-07	71121.9778	
1.21653E-07	70556.3892	
1.21923E-07	69929.4579	
1.21931E-07	69911.5702	
1.22439E-07	68754.6704	
1.22685E-07	68195.3408	
1.22705E-07	68148.5688	
1.22957E-07	67585.6541	
1.23346E-07	66714.6609	
1.23484E-07	66407.7116	
1.23725E-07	65879.1743	
1.23738E-07	65849.6814	
1.24130E-07	64990.7336	
1.24269E-07	64685.9933	
1.24524E-07	64138.3238	
1.24773E-07	63601.7415	
1.24919E-07	63289.8041	
1.25058E-07	62990.03	
1.25314E-07	62453.1683	
1.25712E-07	61615.935	
1.25831E-07	61365.6031	
1.25852E-07	61321.334	
1.25978E-07	61063.7678	
1.26243E-07	60518.2791	
1.26510E-07	59970.4797	
1.26631E-07	59721.3843	
1.26651E-07	59681.3189	
1.26778E-07	59426.5597	
1.27045E-07	58889.4881	
1.27313E-07	58352.4166	
1.27436E-07	58107.1045	
1.27456E-07	58066.6078	
1.27582E-07	57819.3327	
1.27852E-07	57291.0798	
1.28122E-07	56762.8268	
1.28245E-07	56523.7252	
1.28266E-07	56482.8597	
1.28392E-07	56240.9337	
1.28664E-07	55724.0126	
1.28936E-07	55204.9113	
1.29058E-07	54972.0949	
1.29080E-07	54930.9244	
1.29208E-07	54692.2971	
1.29481E-07	54186.9182	
1.29754E-07	53679.3982	
1.29879E-07	53448.6174	
1.29899E-07	53411.4999	
1.30029E-07	53176.3348	
1.30304E-07	52680.573	
1.30704E-07	51958.3705	
1.30716E-07	51936.9357	
1.30725E-07	51920.9899	
1.31131E-07	51207.5965	
1.31534E-07	50501.7212	
1.31547E-07	50478.7066	
1.31555E-07	50464.131	
1.31964E-07	49768.3759	
1.32368E-07	49078.9719	
1.32383E-07	49054.4653	
1.32390E-07	49041.224	
1.32802E-07	48361.1903	
1.33210E-07	47686.3716	
1.33223E-07	47664.3921	
1.33230E-07	47652.4452	
1.33787E-07	46764.9656	
1.34056E-07	46334.8999	
1.34352E-07	45862.256	
1.34360E-07	45850.6292	
1.34907E-07	45004.0531	
1.34929E-07	44970.0699	
1.35205E-07	44552.8971	
1.35499E-07	44108.0511	
1.35763E-07	43716.2282	
1.36073E-07	43257.1556	
1.36626E-07	42454.999	
1.36647E-07	42424.4884	
1.36929E-07	42025.1674	
1.37226E-07	41603.0373	
1.37494E-07	41231.4753	
1.37507E-07	41214.1419	
1.37806E-07	40799.5508	
1.38090E-07	40414.3393	
1.38367E-07	40037.7129	
1.38390E-07	40007.1316	
1.38672E-07	39632.2228	
1.38974E-07	39232.4441	
1.39245E-07	38880.762	
1.39260E-07	38861.1413	
1.39563E-07	38468.7311	
1.39848E-07	38107.4898	
1.40130E-07	37749.6422	
1.40152E-07	37722.2915	
1.40293E-07	37548.2232	
1.40737E-07	36997.7791	
1.40746E-07	36986.7705	
1.41021E-07	36654.443	
1.41183E-07	36458.1744	
1.41340E-07	36268.1341	
1.41631E-07	35923.9644	
1.41916E-07	35587.4671	
1.41939E-07	35560.145	
1.42080E-07	35398.0076	
1.42530E-07	34877.624	
1.42538E-07	34868.6985	
