E(MeV)	mcnp/Sm-150:1
9.999999E-12	5312.047363
1.154358E-11	4944.536133
1.308715E-11	4644.115234
1.617431E-11	4178.044922
1.926146E-11	3829.142822
2.234862E-11	3555.335938
2.543578E-11	3333.059814
2.852293E-11	3147.949219
3.469725E-11	2854.92041
4.087156E-11	2631.142578
4.704588E-11	2453.047852
5.322018E-11	2306.953857
5.939450E-11	2184.301758
7.174312E-11	1988.422241
8.409175E-11	1837.511841
9.644038E-11	1716.643677
1.087890E-10	1617.018799
1.334862E-10	1461.067993
1.581835E-10	1343.293823
1.828808E-10	1250.297485
2.075781E-10	1174.456665
2.569726E-10	1057.076538
3.063672E-10	969.4089966
3.557617E-10	900.7252197
4.051563E-10	845.0368652
5.039453E-10	759.3726807
6.027344E-10	695.7711182
7.015233E-10	646.1427002
8.003125E-10	606.0216675
9.978910E-10	544.4916992
1.195469E-09	498.9484253
1.393047E-09	463.4902649
1.590625E-09	434.8735352
1.985782E-09	391.0635986
2.380938E-09	358.6895142
2.776094E-09	333.5113525
3.171250E-09	313.2023315
3.961563E-09	282.1117859
4.751875E-09	259.1398315
5.542187E-09	241.2993317
6.332500E-09	226.9305115
7.913124E-09	204.9139709
9.493750E-09	188.6002502
1.107438E-08	175.9518738
1.265500E-08	165.8061676
1.581625E-08	150.2292175
1.897750E-08	138.6302185
2.213875E-08	129.6312714
2.530000E-08	122.4198914
3.032203E-08	113.3519897
3.534406E-08	106.2440643
4.036609E-08	100.5169601
4.538812E-08	95.82048035
5.543218E-08	88.35703278
6.547626E-08	82.61042023
7.552032E-08	78.05065155
8.556436E-08	74.36025238
1.056525E-07	68.56395721
1.257406E-07	64.15002441
1.458288E-07	60.66769028
1.659169E-07	57.82397079
1.860050E-07	55.46279144
2.261813E-07	51.66771698
2.663575E-07	48.70700073
3.065338E-07	46.31901932
3.467100E-07	44.34570313
4.270625E-07	41.1973877
5.074150E-07	38.75041199
5.877675E-07	36.77153015
6.681200E-07	35.12123108
7.886487E-07	33.06362915
8.288249E-07	32.46562195
9.895300E-07	30.39247894
1.150235E-06	28.68383026
1.310940E-06	27.24032021
1.632350E-06	24.87880707
1.953760E-06	23.00197411
2.275170E-06	21.43789291
2.596580E-06	20.10409164
3.078695E-06	18.4118309
3.239400E-06	17.91259003
3.721514E-06	16.56973648
4.525040E-06	14.72404289
5.167860E-06	13.50161552
5.971385E-06	12.20535278
6.453500E-06	11.52526474
7.417730E-06	10.3353405
7.739141E-06	9.980678558
8.703370E-06	9.020715714
9.024780E-06	8.730649948
9.989009E-06	7.938380718
1.031042E-05	7.697863579
1.127465E-05	7.043466091
1.223888E-05	6.488456726
1.288170E-05	6.18229866
1.352452E-05	5.942041397
1.416735E-05	5.789264679
1.448876E-05	5.757551193
1.481017E-05	5.767158985
1.513158E-05	5.827728748
1.545299E-05	5.954024792
1.577440E-05	6.166563988
1.609581E-05	6.494322777
1.641722E-05	6.97321701
1.657792E-05	7.286567688
1.673863E-05	7.665331841
1.681898E-05	7.881682873
1.689933E-05	8.119848251
1.697968E-05	8.38092804
1.701986E-05	8.52073288
1.706004E-05	8.667208672
1.710022E-05	8.820714951
1.714040E-05	8.981542587
1.718058E-05	9.150036812
1.722075E-05	9.326517105
1.724084E-05	9.417939186
1.726093E-05	9.511516571
1.730110E-05	9.705430984
1.732119E-05	9.805922508
1.736136E-05	10.01417351
1.738145E-05	10.12210083
1.742163E-05	10.34592438
1.744172E-05	10.46191216
1.748190E-05	10.70248795
1.750198E-05	10.82718182
1.754216E-05	11.08600616
1.756225E-05	11.22024727
1.760242E-05	11.49882507
1.762251E-05	11.64341354
1.764260E-05	11.79164124
1.766269E-05	11.94364071
1.768277E-05	12.09945488
1.770286E-05	12.25934696
1.772295E-05	12.42334652
1.774303E-05	12.59150696
1.776312E-05	12.76412869
1.778321E-05	12.94122219
1.782339E-05	13.3093729
1.786356E-05	13.69708443
1.790374E-05	14.10566998
1.794391E-05	14.53636074
1.798409E-05	14.99079037
1.802427E-05	15.47047806
1.806445E-05	15.97711945
1.810462E-05	16.51243973
1.814479E-05	17.07853508
1.818497E-05	17.67775345
1.822515E-05	18.31229782
1.826533E-05	18.9847374
1.830550E-05	19.69768715
1.834568E-05	20.45464325
1.838585E-05	21.25854683
1.842603E-05	22.11353683
1.846621E-05	23.02399826
1.850639E-05	23.99456978
1.854657E-05	25.03055763
1.858674E-05	26.13681221
1.866709E-05	28.58224487
1.874744E-05	31.3822403
1.882780E-05	34.60713196
1.890815E-05	38.34191895
1.898850E-05	42.68869019
1.906885E-05	47.77619934
1.910902E-05	50.65285873
1.914920E-05	53.78976059
1.918938E-05	57.2175293
1.922956E-05	60.97057343
1.926974E-05	65.08810425
1.930991E-05	69.61504364
1.935009E-05	74.60673523
1.939026E-05	80.12457275
1.943044E-05	86.24538422
1.947062E-05	93.05561829
1.951080E-05	100.6596756
1.955097E-05	109.1815414
1.959114E-05	118.7709732
1.963132E-05	129.614624
1.967150E-05	141.9316711
1.971168E-05	155.9972229
1.975185E-05	172.1461182
1.979203E-05	190.8164368
1.983220E-05	212.539505
1.987238E-05	238.0294189
1.991256E-05	268.1847229
1.995273E-05	304.194397
1.999290E-05	347.6663208
2.003308E-05	400.8269043
2.005317E-05	431.967804
2.007325E-05	466.7794189
2.009334E-05	505.9207153
2.011343E-05	550.1453857
2.013352E-05	600.3823853
2.015361E-05	657.8306885
2.017369E-05	723.9520874
2.019378E-05	800.713501
2.021387E-05	890.5982666
2.023396E-05	996.9592896
2.025405E-05	1124.295898
2.027414E-05	1278.86084
2.029423E-05	1469.29126
2.031432E-05	1707.890381
2.032436E-05	1850.297607
2.033440E-05	2011.687622
2.034444E-05	2195.202637
2.035449E-05	2404.721436
2.036454E-05	2644.511963
2.037458E-05	2919.204102
2.038462E-05	3234.486084
2.039466E-05	3596.491211
2.040471E-05	4012.387207
2.041475E-05	4488.588867
2.042479E-05	5032.782227
2.043484E-05	5653.12207
2.044489E-05	6356.49707
2.045493E-05	7148.274414
2.046497E-05	8034.818848
2.047501E-05	9019.486328
2.048505E-05	10103.64453
2.049510E-05	11287.17188
2.050515E-05	12564.5625
2.052523E-05	15357.42969
2.057546E-05	22857.51953
2.059555E-05	25475.25977
2.060917E-05	26921.58984
2.062959E-05	28416.37109
2.065000E-05	28956.96094
2.066362E-05	28751.55078
2.067043E-05	28481.23047
2.069084E-05	27051.67969
2.069765E-05	26389.26953
2.071782E-05	23998.19922
2.073786E-05	21185.46094
2.077127E-05	16213.60352
2.079800E-05	12532.45801
2.081137E-05	10901.35547
2.082474E-05	9436.09375
2.083810E-05	8142.840332
2.085147E-05	7016.923828
2.086483E-05	6050.14502
2.087819E-05	5227.628906
2.089156E-05	4532.709961
2.090492E-05	3949.677246
2.091829E-05	3461.405029
2.093166E-05	3052.687988
2.094502E-05	2710.628906
2.095839E-05	2422.931152
2.097175E-05	2179.99707
2.098512E-05	1973.523438
2.099848E-05	1797.040771
2.101184E-05	1644.936401
2.102521E-05	1512.862061
2.103858E-05	1397.432373
2.105194E-05	1295.943115
2.107867E-05	1125.964355
2.110540E-05	989.7408447
2.113213E-05	878.4970093
2.115886E-05	786.2519531
2.118559E-05	708.7463989
2.121231E-05	642.9493408
2.123904E-05	586.5147705
2.126577E-05	537.7059326
2.129250E-05	495.1669312
2.131923E-05	457.8358765
2.134596E-05	424.8587036
2.139942E-05	369.3922119
2.145288E-05	324.7554932
2.150634E-05	288.2616882
2.155980E-05	258.0260925
2.161326E-05	232.6765137
2.166672E-05	211.1990662
2.172018E-05	192.8247681
2.177364E-05	176.9743042
2.182710E-05	163.1993713
2.188056E-05	151.1522827
2.193402E-05	140.5603943
2.198748E-05	131.1934509
2.209440E-05	115.3702087
2.220132E-05	102.5280762
2.230824E-05	91.97575378
2.241516E-05	83.20139313
2.252208E-05	75.81761932
2.262900E-05	69.53746033
2.273592E-05	64.14529419
2.284284E-05	59.47615051
2.294976E-05	55.40233612
2.305668E-05	51.82352829
2.316360E-05	48.66461182
2.327052E-05	45.87677002
2.348436E-05	41.12675095
2.369820E-05	37.23145294
2.391204E-05	34.01292419
2.412588E-05	31.31662178
2.433972E-05	29.03018379
2.455356E-05	27.07040024
2.476740E-05	25.37457657
2.498124E-05	23.89464569
2.519508E-05	22.59313583
2.540891E-05	21.44069672
2.562275E-05	20.41378975
2.583659E-05	19.50011444
2.626427E-05	17.92531395
2.669194E-05	16.61656189
2.711962E-05	15.51762295
2.754730E-05	14.58195877
2.797498E-05	13.77559376
2.840266E-05	13.07320213
2.883034E-05	12.45555401
2.925801E-05	11.90780067
2.968569E-05	11.41832161
3.011337E-05	10.97957802
3.096872E-05	10.2189312
3.182408E-05	9.57998085
3.267944E-05	9.03476429
3.353479E-05	8.561982155
3.439015E-05	8.146202087
3.524551E-05	7.77602005
3.610086E-05	7.442869663
3.695622E-05	7.140245914
3.781158E-05	6.863278866
3.866693E-05	6.608537674
3.952229E-05	6.373780727
3.994997E-05	6.263747692
4.037766E-05	6.159227371
4.080533E-05	6.060446739
4.123300E-05	5.968245506
4.166068E-05	5.883956432
4.208836E-05	5.809668064
4.251604E-05	5.748604774
4.294372E-05	5.705778122
4.337140E-05	5.687895775
4.358524E-05	5.691864967
4.379908E-05	5.70833683
4.401292E-05	5.73954916
4.422675E-05	5.789325714
4.444059E-05	5.862827301
4.465444E-05	5.967017174
4.486827E-05	6.111459732
4.508211E-05	6.309532166
4.529594E-05	6.579959869
4.550978E-05	6.946519852
4.561669E-05	7.178371906
4.572362E-05	7.45341301
4.583054E-05	7.780013084
4.593746E-05	8.168757439
4.604438E-05	8.633693695
4.615130E-05	9.193340302
4.625821E-05	9.871909142
4.636514E-05	10.70192337
4.647206E-05	11.72695351
4.657898E-05	13.00644302
4.668589E-05	14.62182045
4.679282E-05	16.69296455
4.684628E-05	17.95371819
4.689973E-05	19.40443993
4.695320E-05	21.08442307
4.700666E-05	23.04234314
4.703339E-05	24.14428711
4.706012E-05	25.34091759
4.708686E-05	26.64260483
4.711358E-05	28.06176567
4.714030E-05	29.61268234
4.716704E-05	31.31340599
4.719377E-05	33.18119431
4.721383E-05	34.70635605
4.723386E-05	36.34819412
4.724054E-05	36.92420197
4.725391E-05	38.12187958
4.727395E-05	40.03972244
4.729402E-05	42.12015533
4.731407E-05	44.37963867
4.732742E-05	45.99475479
4.734747E-05	48.60254669
4.735415E-05	49.52436066
4.736751E-05	51.45428467
4.738088E-05	53.50751877
4.739425E-05	55.69700623
4.740762E-05	58.03149414
4.742098E-05	60.52444839
4.743435E-05	63.19567871
4.744771E-05	66.0585022
4.746108E-05	69.13517761
4.747443E-05	72.44591522
4.748780E-05	76.02570343
4.750117E-05	79.89650726
4.751454E-05	84.09285736
4.752789E-05	88.65888977
4.754126E-05	93.6424942
4.755464E-05	99.10469055
4.756798E-05	105.092247
4.758135E-05	111.7073059
4.759472E-05	119.0329514
4.760808E-05	127.1715469
4.762145E-05	136.2580261
4.763482E-05	146.4456329
4.764818E-05	157.9152679
4.766154E-05	170.8681793
4.767491E-05	185.5756989
4.768828E-05	202.318924
4.770164E-05	221.4013519
4.771501E-05	243.254303
4.772837E-05	268.3032837
4.774174E-05	297.0444641
4.775510E-05	330.0000305
4.776845E-05	367.7620239
4.778183E-05	411.0822754
4.779519E-05	460.547821
4.780856E-05	516.9040527
4.782192E-05	580.8099976
4.783529E-05	653.0661011
4.784865E-05	734.1943359
4.786201E-05	824.7269287
4.787538E-05	925.2438965
4.788874E-05	1035.93457
4.790211E-05	1156.84668
4.792884E-05	1427.965454
4.794219E-05	1576.935913
4.796893E-05	1895.785889
4.802908E-05	2641.289551
4.804913E-05	2866.703125
4.806917E-05	3064.024902
4.809188E-05	3241.687012
4.812395E-05	3388.62085
4.813999E-05	3410.829346
4.814803E-05	3408.595703
4.816405E-05	3377.63916
4.819613E-05	3215.386719
4.821956E-05	3023.306641
4.824269E-05	2787.277344
4.828125E-05	2332.341064
4.832750E-05	1768.445068
4.835835E-05	1424.747681
4.837377E-05	1269.455444
4.838919E-05	1126.709961
4.840461E-05	997.0258179
4.842003E-05	880.5361328
4.843545E-05	776.7463379
4.845087E-05	685.1896973
4.846629E-05	604.9592896
4.848170E-05	535.1417847
4.849713E-05	474.607605
4.851254E-05	422.4028931
4.852797E-05	377.4666443
4.854339E-05	338.8426514
4.855882E-05	305.6292419
4.857424E-05	277.1021729
4.858965E-05	252.5284729
4.860506E-05	231.2657318
4.862048E-05	212.8117676
4.863590E-05	196.7343903
4.865133E-05	182.6374969
4.866675E-05	170.230072
4.869758E-05	149.4660034
4.872842E-05	132.8380737
4.875926E-05	119.2696381
4.879010E-05	107.9986572
4.882093E-05	98.50247955
4.885177E-05	90.40235901
4.888260E-05	83.42016602
4.891344E-05	77.34687805
4.894428E-05	72.02046204
4.900597E-05	63.14099121
4.906764E-05	56.06021118
4.912933E-05	50.30461884
4.919100E-05	45.55393219
4.925268E-05	41.58029175
4.931437E-05	38.21850967
4.937604E-05	35.34609985
4.943772E-05	32.86987305
4.949941E-05	30.71768951
4.956107E-05	28.83562088
4.962275E-05	27.17786026
4.968443E-05	25.7094593
4.980778E-05	23.2263298
4.993115E-05	21.20957184
5.005450E-05	19.54650497
5.017786E-05	18.15807343
5.030121E-05	16.98532295
5.042458E-05	15.98381805
5.054794E-05	15.12044716
5.067130E-05	14.36962318
5.079466E-05	13.71163273
5.091801E-05	13.13118839
5.104136E-05	12.61673069
5.116471E-05	12.15935707
5.141141E-05	11.37563801
5.165812E-05	10.72710514
5.190485E-05	10.18551826
5.215156E-05	9.727089882
5.239829E-05	9.334150314
5.264499E-05	8.993703842
5.289170E-05	8.695816994
5.313840E-05	8.432928085
5.338512E-05	8.199079514
5.363183E-05	7.989607334
5.387855E-05	7.800810814
5.412526E-05	7.630856037
5.461869E-05	7.33272171
5.511210E-05	7.078888416
5.560554E-05	6.86055994
5.609896E-05	6.670138359
5.659239E-05	6.502040386
5.708582E-05	6.352082729
5.757925E-05	6.217069626
5.807267E-05	6.094527245
5.856610E-05	5.982495308
5.905952E-05	5.879803658
6.004637E-05	5.696009636
6.103322E-05	5.535194397
6.202008E-05	5.392617702
6.300693E-05	5.264538288
6.399378E-05	5.148209572
6.498064E-05	5.04157877
6.596748E-05	4.943245888
6.794120E-05	4.766028404
6.991490E-05	4.609190941
7.188860E-05	4.468169212
7.386230E-05	4.339595795
7.583601E-05	4.221008301
7.780972E-05	4.110541344
7.978341E-05	4.006717682
8.175714E-05	3.908335447
8.373083E-05	3.81436944
8.570453E-05	3.723907232
8.767824E-05	3.636096478
8.965195E-05	3.550088167
9.162565E-05	3.464984655
9.359935E-05	3.379751682
9.557306E-05	3.293119669
9.754676E-05	3.203474045
9.853363E-05	3.156834364
9.952047E-05	3.108428001
1.005073E-04	3.057824612
1.014942E-04	3.004428625
1.024810E-04	2.947615623
1.029745E-04	2.91766572
1.034679E-04	2.886441231
1.039613E-04	2.853887558
1.044548E-04	2.819889545
1.049482E-04	2.784389973
1.054416E-04	2.747383356
1.059350E-04	2.709058762
1.061817E-04	2.689529181
1.064285E-04	2.669852972
1.066752E-04	2.650230169
1.069219E-04	2.630915165
1.071686E-04	2.612277746
1.074153E-04	2.594871998
1.076620E-04	2.579522371
1.079087E-04	2.567467213
1.081554E-04	2.560531139
1.084021E-04	2.561419964
1.085255E-04	2.56619072
1.086488E-04	2.574948788
1.087722E-04	2.588779688
1.088956E-04	2.609041214
1.090190E-04	2.637532473
1.091423E-04	2.676640987
1.092657E-04	2.729716063
1.093890E-04	2.801163912
1.095123E-04	2.89725399
1.096357E-04	3.026890039
1.097590E-04	3.202790976
1.098207E-04	3.314010143
1.098824E-04	3.445015907
1.099441E-04	3.600076914
1.100058E-04	3.784775257
1.100675E-04	4.006088734
1.101292E-04	4.273390293
1.101909E-04	4.598958492
1.102525E-04	4.998796463
1.103142E-04	5.498253822
1.103759E-04	6.131609917
1.104376E-04	6.954589844
1.104685E-04	7.464980125
1.104993E-04	8.061314583
1.105301E-04	8.769887924
1.105609E-04	9.625077248
1.105918E-04	10.68078041
1.106072E-04	11.30243206
1.106226E-04	12.00225258
1.106380E-04	12.79403019
1.106534E-04	13.69315338
1.106688E-04	14.71994209
1.106842E-04	15.89747238
1.106996E-04	17.25302505
1.107150E-04	18.82044029
1.107305E-04	20.64658928
1.107459E-04	22.75284767
1.107613E-04	25.20051003
1.107767E-04	28.04711342
1.107922E-04	31.38165092
1.108076E-04	35.23472595
1.108231E-04	39.7358017
1.108308E-04	42.23363876
1.108462E-04	47.81923294
1.108539E-04	50.92708206
1.108693E-04	57.84793091
1.108847E-04	65.81651306
1.108924E-04	70.23461151
1.109079E-04	80.04506683
1.109156E-04	85.43830872
1.109310E-04	97.28674316
1.109387E-04	103.7866898
1.109541E-04	118.020401
1.109772E-04	142.6930542
1.109926E-04	161.5275269
1.110080E-04	182.4143066
1.110235E-04	205.5209198
1.110389E-04	230.6731262
1.110543E-04	258.0183411
1.110697E-04	287.5489502
1.110851E-04	319.1820068
1.111160E-04	388.7223511
1.111623E-04	505.1314697
1.112085E-04	628.6958008
1.112471E-04	729.421814
1.112933E-04	835.4777222
1.113241E-04	891.2369385
1.113473E-04	922.8226929
1.113674E-04	941.9609375
1.114046E-04	955.5884399
1.114326E-04	946.6481934
1.114720E-04	907.2755737
1.115067E-04	849.8582764
1.115484E-04	759.2271118
1.116039E-04	617.9703369
1.116456E-04	508.686615
1.116871E-04	406.2029419
1.117149E-04	343.8493042
1.117287E-04	315.1967163
1.117426E-04	287.9848633
1.117704E-04	238.7329102
1.117982E-04	196.3590698
1.118260E-04	160.6085815
1.118399E-04	145.0586853
1.118537E-04	131.0627899
1.118676E-04	118.3430176
1.118815E-04	106.8994598
1.118953E-04	96.69869232
1.119092E-04	87.5218811
1.119231E-04	79.34309387
1.119370E-04	72.07231903
1.119509E-04	65.62304688
1.119648E-04	59.9131012
1.119787E-04	54.86521149
1.119926E-04	50.40744019
1.120065E-04	46.47338867
1.120204E-04	43.00232697
1.120342E-04	39.9637413
1.120481E-04	37.25556946
1.120620E-04	34.86116028
1.120759E-04	32.7431488
1.121037E-04	29.18891907
1.121314E-04	26.36734962
1.121592E-04	24.08473969
1.121870E-04	22.21522903
1.122148E-04	20.65866089
1.122426E-04	19.34375
1.122703E-04	18.21954727
1.122981E-04	17.23834991
1.123258E-04	16.3788681
1.123813E-04	14.92776299
1.124368E-04	13.74822044
1.124923E-04	12.76721573
1.125479E-04	11.93664169
1.126034E-04	11.22698021
1.126590E-04	10.6118927
1.127145E-04	10.07577801
1.127700E-04	9.60414505
1.128256E-04	9.185305595
1.128811E-04	8.812365532
1.129921E-04	8.176281929
1.131031E-04	7.654582977
1.132142E-04	7.219380856
1.133253E-04	6.852013111
1.134363E-04	6.538502693
1.135473E-04	6.268027306
1.136584E-04	6.032352924
1.137695E-04	5.825518608
1.138805E-04	5.64297533
1.139915E-04	5.480692387
1.141026E-04	5.335451126
1.143247E-04	5.086307049
1.145468E-04	4.879747868
1.147690E-04	4.706048012
1.149911E-04	4.558308601
1.152132E-04	4.431053162
1.154353E-04	4.32028389
1.156574E-04	4.222921848
1.158795E-04	4.136639595
1.161016E-04	4.059699535
1.163237E-04	3.990922213
1.167679E-04	3.871602297
1.172121E-04	3.771073818
1.176563E-04	3.685409069
1.181006E-04	3.611230612
1.185448E-04	3.546127796
1.189890E-04	3.488282442
1.194333E-04	3.436319113
1.198775E-04	3.389220238
1.203217E-04	3.346405506
1.212102E-04	3.270100355
1.220986E-04	3.203382015
1.229871E-04	3.144017458
1.238755E-04	3.090229034
1.247639E-04	3.040713072
1.256524E-04	2.994494915
1.265408E-04	2.950836182
1.274292E-04	2.909125566
1.283177E-04	2.868854046
1.292061E-04	2.829584599
1.300945E-04	2.790899277
1.309830E-04	2.752387524
1.318715E-04	2.713627338
1.327599E-04	2.674203634
1.332041E-04	2.654091597
1.336483E-04	2.633602619
1.340926E-04	2.612697124
1.345368E-04	2.591349363
1.349810E-04	2.569561958
1.354253E-04	2.547424793
1.356474E-04	2.536301374
1.358695E-04	2.525215626
1.360916E-04	2.514271259
1.363137E-04	2.503622532
1.365358E-04	2.493504286
1.367579E-04	2.484277248
1.369800E-04	2.476495266
1.372021E-04	2.471001863
1.374242E-04	2.469159365
1.375352E-04	2.470302105
1.376463E-04	2.473381996
1.377574E-04	2.478981972
1.378684E-04	2.48786068
1.379794E-04	2.501071215
1.380905E-04	2.520088434
1.382016E-04	2.54696393
1.383126E-04	2.584651709
1.384236E-04	2.637668848
1.384792E-04	2.672059059
1.385347E-04	2.713163614
1.385902E-04	2.762652397
1.386458E-04	2.822743893
1.387013E-04	2.896110058
1.387568E-04	2.986929893
1.388123E-04	3.101100922
1.388679E-04	3.248433113
1.389234E-04	3.444386005
1.389511E-04	3.568646908
1.389789E-04	3.717833996
1.390067E-04	3.899025917
1.390345E-04	4.122231007
1.390623E-04	4.401573181
1.390900E-04	4.753925323
1.391178E-04	5.206630707
1.391455E-04	5.788626194
1.391732E-04	6.544115067
1.391871E-04	7.004743099
1.392010E-04	7.530290127
1.392149E-04	8.129705429
1.392288E-04	8.812914848
1.392427E-04	9.589724541
1.392566E-04	10.47423744
1.392705E-04	11.47704792
1.392844E-04	12.61500835
1.392982E-04	13.89079475
1.393121E-04	15.34152222
1.393260E-04	16.97199821
1.393398E-04	18.78864861
1.393537E-04	20.83781052
1.393676E-04	23.1210537
1.393815E-04	25.6638813
1.393954E-04	28.47859001
1.394093E-04	31.58739853
1.394232E-04	35.01347733
1.394371E-04	38.76473618
1.394510E-04	42.86145782
1.394787E-04	52.11036682
1.395064E-04	62.85640717
1.395342E-04	75.18636322
1.395620E-04	89.01867676
1.395898E-04	104.2319107
1.396245E-04	124.8178101
1.396730E-04	155.4242859
1.397112E-04	179.6129303
1.397494E-04	202.3748322
1.397876E-04	222.177536
1.398258E-04	237.6342773
1.398639E-04	247.5213165
1.399041E-04	251.1400757
1.399286E-04	249.7637329
1.399559E-04	245.0973511
1.399793E-04	238.6177216
1.400074E-04	228.0959473
1.400541E-04	205.2417297
1.401102E-04	172.0744019
1.401942E-04	120.2112885
1.402129E-04	109.4127502
1.402503E-04	89.38468933
1.402690E-04	80.28656006
1.402877E-04	71.82661438
1.403063E-04	64.09503937
