E(MeV)	mcnp/Sm-147:1	
1.00000E-11	3055.345215	
1.15436E-11	2844.315186	
1.30872E-11	2671.827881	
1.61743E-11	2404.279053	
1.92615E-11	2204.03833	
2.23486E-11	2046.93457	
2.54358E-11	1919.426147	
2.85229E-11	1813.263672	
3.46972E-11	1645.265259	
4.08716E-11	1517.02771	
4.70459E-11	1415.013184	
5.32202E-11	1331.366821	
5.93945E-11	1261.171753	
7.17431E-11	1149.136475	
8.40917E-11	1062.891724	
9.64404E-11	993.8706055	
1.08789E-10	937.0228882	
1.33486E-10	848.1286011	
1.58183E-10	781.0866699	
1.82881E-10	728.2168579	
2.07578E-10	685.1516113	
2.56973E-10	618.6026001	
3.06367E-10	568.9957886	
3.55762E-10	530.1965942	
4.05156E-10	498.7852783	
5.03945E-10	450.5557556	
6.02735E-10	414.8238525	
7.01523E-10	386.9900513	
8.00312E-10	364.5200806	
9.97891E-10	330.1166687	
1.19547E-09	304.6965637	
1.39305E-09	284.932373	
1.59063E-09	268.9989014	
1.98578E-09	244.636795	
2.38094E-09	226.6580811	
2.77609E-09	212.689621	
3.17125E-09	201.4317169	
3.96156E-09	184.2142181	
4.75187E-09	171.5062103	
5.54219E-09	161.6436005	
6.33250E-09	153.7032928	
7.12281E-09	147.1208344	
7.91312E-09	141.5392914	
8.30828E-09	139.048645	
8.70344E-09	136.7288361	
9.09859E-09	134.5625153	
9.49375E-09	132.5348511	
9.88064E-09	130.671524	
1.01791E-08	129.3096924	
1.04775E-08	128.0086975	
1.07759E-08	126.7641525	
1.10744E-08	125.5722885	
1.14695E-08	124.0688171	
1.18647E-08	122.6433563	
1.26550E-08	119.9984207	
1.34453E-08	117.5888977	
1.42356E-08	115.3771591	
1.58163E-08	111.4422226	
1.89775E-08	105.0724564	
2.21387E-08	100.127037	
2.53000E-08	96.15089417	
2.85593E-08	92.77875519	
3.18186E-08	89.95916748	
3.83372E-08	85.399086	
4.48559E-08	81.86446381	
5.13745E-08	79.03981018	
5.78931E-08	76.70076752	
6.44117E-08	74.74774933	
7.74490E-08	71.58660126	
9.04862E-08	69.10760498	
1.03523E-07	67.11624146	
1.29598E-07	64.08966827	
1.57092E-07	61.73952866	
1.81747E-07	60.09047318	
2.07821E-07	58.66991043	
2.36230E-07	57.39883423	
2.86045E-07	55.62818146	
3.24804E-07	54.51916504	
3.38194E-07	54.18354416	
4.20707E-07	52.45433807	
5.18479E-07	50.94332123	
6.20180E-07	49.73490143	
7.20012E-07	48.78814697	
8.59683E-07	47.73194122	
1.01998E-06	46.78961182	
1.11554E-06	46.32952118	
1.27687E-06	45.69524384	
1.45937E-06	45.17276764	
1.69428E-06	44.80857849	
1.83467E-06	44.78463745	
2.00656E-06	45.02329254	
2.13000E-06	45.44443512	
2.19455E-06	45.77920914	
2.28366E-06	46.40814209	
2.32956E-06	46.82835007	
2.42415E-06	47.96248627	
2.47288E-06	48.72161102	
2.52845E-06	49.78149414	
2.57329E-06	50.82945251	
2.65126E-06	53.1859169	
2.67778E-06	54.18557739	
2.73160E-06	56.62690353	
2.75891E-06	58.12611389	
2.81437E-06	61.88479996	
2.84251E-06	64.26074982	
2.87094E-06	67.07423401	
2.89965E-06	70.43558502	
2.92865E-06	74.49980164	
2.94564E-06	77.27184296	
2.95794E-06	79.49171448	
2.98752E-06	85.70593262	
3.01739E-06	93.5395813	
3.04757E-06	103.609436	
3.06280E-06	109.7964325	
3.07804E-06	116.930481	
3.09418E-06	125.7467499	
3.10952E-06	135.6071625	
3.12410E-06	146.6449127	
3.13797E-06	159.0092316	
3.15115E-06	172.8750458	
3.16369E-06	188.4424896	
3.17561E-06	205.9525146	
3.18695E-06	225.6828003	
3.19774E-06	247.959198	
3.20800E-06	273.1637268	
3.21777E-06	301.7609558	
3.22706E-06	334.2762146	
3.23591E-06	371.3471985	
3.24434E-06	413.7260742	
3.25237E-06	462.2443542	
3.26001E-06	517.8339233	
3.26730E-06	581.4412231	
3.27425E-06	654.1190186	
3.28088E-06	736.7104492	
3.28720E-06	830.0540771	
3.29324E-06	934.6967773	
3.30179E-06	1113.36377	
3.30742E-06	1253.195923	
3.31306E-06	1412.320313	
3.31869E-06	1591.762695	
3.32433E-06	1791.84668	
3.33096E-06	2052.687012	
3.33722E-06	2321.812256	
3.35434E-06	3121.630615	
3.36283E-06	3511.718506	
3.37207E-06	3886.139404	
3.38228E-06	4193.866211	
3.39261E-06	4350.169434	
3.39700E-06	4362.744629	
3.40092E-06	4346.025879	
3.40823E-06	4246.238281	
3.41946E-06	3938.139893	
3.43027E-06	3509.51416	
3.43909E-06	3106.445313	
3.45021E-06	2584.60376	
3.45613E-06	2317.167236	
3.46236E-06	2052.025391	
3.46895E-06	1794.801147	
3.47366E-06	1627.190308	
3.47837E-06	1473.639771	
3.48624E-06	1248.493042	
3.49410E-06	1060.042847	
3.50279E-06	889.7250977	
3.50892E-06	790.1699219	
3.51535E-06	701.4274902	
3.52208E-06	622.8920288	
3.52914E-06	553.8067627	
3.53655E-06	493.2433167	
3.54432E-06	440.3262024	
3.55248E-06	394.0844727	
3.56105E-06	353.6576538	
3.57005E-06	318.2521973	
3.57950E-06	287.1871643	
3.58944E-06	259.8601379	
3.59988E-06	235.7609863	
3.61085E-06	214.4547882	
3.62238E-06	195.5773468	
3.63451E-06	178.8126068	
3.64726E-06	163.901825	
3.66068E-06	150.6180267	
3.67478E-06	138.7690582	
3.68961E-06	128.1830139	
3.70522E-06	118.7164917	
3.72164E-06	110.2385101	
3.73891E-06	102.641449	
3.75760E-06	95.64636993	
3.77629E-06	89.68008423	
3.79518E-06	84.50249481	
3.81406E-06	80.02613831	
3.83313E-06	76.09378052	
3.85220E-06	72.65299225	
3.89354E-06	66.50923157	
3.92963E-06	62.2580986	
3.96893E-06	58.50472641	
4.00862E-06	55.41489029	
4.04871E-06	52.83936691	
4.08919E-06	50.6688652	
4.13009E-06	48.82054901	
4.17139E-06	47.23169327	
4.21311E-06	45.85404968	
4.25524E-06	44.64997101	
4.29779E-06	43.58911896	
4.34077E-06	42.6477356	
4.38418E-06	41.80910492	
4.42802E-06	41.05752945	
4.51703E-06	39.76087189	
4.56220E-06	39.19748306	
4.65390E-06	38.20475006	
4.79492E-06	36.97531128	
4.89130E-06	36.28255463	
4.98962E-06	35.66231155	
5.08991E-06	35.10241318	
5.28063E-06	34.18639755	
5.51165E-06	33.26052475	
5.62244E-06	32.86535645	
5.90925E-06	31.94607544	
6.20537E-06	31.10231781	
6.65871E-06	29.94611549	
7.16321E-06	28.77261925	
7.45555E-06	28.12848663	
8.07652E-06	26.81540108	
8.40614E-06	26.14072418	
9.10627E-06	24.74060249	
9.86473E-06	23.25855255	
1.06863E-05	21.68002319	
1.10989E-05	20.89787483	
1.14352E-05	20.26708031	
1.17817E-05	19.6260643	
1.21387E-05	18.97902298	
1.26785E-05	18.04257965	
1.28855E-05	17.70471191	
1.31445E-05	17.30535889	
1.34087E-05	16.9324379	
1.36783E-05	16.60308838	
1.40927E-05	16.24780273	
1.42337E-05	16.18496704	
1.45198E-05	16.18609428	
1.48116E-05	16.4352951	
1.51093E-05	17.07536507	
1.52604E-05	17.61309052	
1.54130E-05	18.3528347	
1.55672E-05	19.35611153	
1.57228E-05	20.69264984	
1.58015E-05	21.52349663	
1.58801E-05	22.48877907	
1.59595E-05	23.61529732	
1.59992E-05	24.24311638	
1.60389E-05	24.91929054	
1.60790E-05	25.65548134	
1.61191E-05	26.44925499	
1.61592E-05	27.30540848	
1.61993E-05	28.22926712	
1.62398E-05	29.2371788	
1.62803E-05	30.32628059	
1.63208E-05	31.50456619	
1.63613E-05	32.7804718	
1.63774E-05	33.31885529	
1.64143E-05	34.61452484	
1.64512E-05	36.01026154	
1.64880E-05	37.51557922	
1.65249E-05	39.14006042	
1.65662E-05	41.11626053	
1.66075E-05	43.2745018	
1.66488E-05	45.63401794	
1.66901E-05	48.21807861	
1.67319E-05	51.08348465	
1.67736E-05	54.23555374	
1.68153E-05	57.71030426	
1.68571E-05	61.54858017	
1.68992E-05	65.84236908	
1.69413E-05	70.61270905	
1.69835E-05	75.92654419	
1.70256E-05	81.86323547	
1.70682E-05	88.58594513	
1.71107E-05	96.15415955	
1.71533E-05	104.704216	
1.71959E-05	114.4035339	
1.72389E-05	125.5752029	
1.72819E-05	138.3803711	
1.73248E-05	153.1342163	
1.73678E-05	170.2355957	
1.74112E-05	190.3987732	
1.74547E-05	214.1222687	
1.74981E-05	242.2460632	
1.75415E-05	275.8860779	
1.75847E-05	316.2830505	
1.76063E-05	339.6868591	
1.76279E-05	365.6364136	
1.76495E-05	394.5115967	
1.76711E-05	426.7640076	
1.76927E-05	462.9328918	
1.77143E-05	503.6664429	
1.77441E-05	568.7368164	
1.77724E-05	642.4576416	
1.77993E-05	726.1174927	
1.78248E-05	821.1494141	
1.78492E-05	929.3683472	
1.78723E-05	1052.973511	
1.78944E-05	1194.376709	
1.79153E-05	1356.649414	
1.79353E-05	1543.644897	
1.79449E-05	1647.562622	
1.79634E-05	1879.29187	
1.79811E-05	2147.576416	
1.79979E-05	2457.490967	
1.80139E-05	2814.788086	
1.80291E-05	3225.496582	
1.80437E-05	3694.316406	
1.80576E-05	4225.401367	
1.80674E-05	4658.068848	
1.80773E-05	5144.007813	
1.80922E-05	5994.621094	
1.81072E-05	6993.776855	
1.81206E-05	8025.492676	
1.81340E-05	9189.026367	
1.81488E-05	10623.63574	
1.81627E-05	12109.60938	
1.82005E-05	16551.06055	
1.82234E-05	19251.58203	
1.82423E-05	21243.44531	
1.82679E-05	23301.16797	
1.82890E-05	24225.45703	
1.83000E-05	24384.9375	
1.83168E-05	24188.75781	
1.83395E-05	23115.76563	
1.83637E-05	21134.18555	
1.83863E-05	18749.6582	
1.84098E-05	16026.47852	
1.84492E-05	11630.98242	
1.84638E-05	10193.11426	
1.84849E-05	8383.12793	
1.85024E-05	7105.537109	
1.85200E-05	6031.699707	
1.85298E-05	5518.321289	
1.85395E-05	5056.672363	
1.85532E-05	4485.919434	
1.85676E-05	3975.550537	
1.85828E-05	3523.841797	
1.85986E-05	3126.094971	
1.86152E-05	2777.659424	
1.86327E-05	2472.399902	
1.86510E-05	2205.765381	
1.86703E-05	1972.42041	
1.86905E-05	1767.666626	
1.87117E-05	1587.863892	
1.87341E-05	1429.152344	
1.87576E-05	1288.736694	
1.87822E-05	1164.227295	
1.88082E-05	1053.365601	
1.88355E-05	954.5612183	
1.88642E-05	866.2130737	
1.88944E-05	787.1176147	
1.89261E-05	716.1763306	
1.89595E-05	652.4327393	
1.89946E-05	595.0897827	
1.90316E-05	543.4110718	
1.90791E-05	487.2841187	
1.91267E-05	440.3917542	
1.91743E-05	400.7590027	
1.92219E-05	366.9269714	
1.92699E-05	337.5217285	
1.93180E-05	312.0424194	
1.93661E-05	289.7971497	
1.94141E-05	270.2617798	
1.94627E-05	252.8525543	
1.95112E-05	237.4101715	
1.96083E-05	211.2223053	
1.97063E-05	189.6690369	
1.98043E-05	171.8911591	
1.99034E-05	156.914978	
2.00024E-05	144.2812347	
2.01024E-05	133.4076843	
2.02024E-05	124.0549774	
2.03034E-05	115.8651047	
2.04045E-05	108.7107162	
2.05065E-05	102.3567352	
2.06085E-05	96.73548126	
2.07115E-05	91.69065094	
2.08146E-05	87.21168518	
2.10227E-05	79.44565582	
2.12330E-05	72.95713806	
2.14453E-05	67.49806976	
2.16598E-05	62.84547424	
2.18764E-05	58.83434296	
2.20951E-05	55.34043884	
2.23161E-05	52.26968765	
2.25393E-05	49.54284286	
2.27000E-05	47.77898026	
2.29270E-05	45.53792572	
2.31563E-05	43.51185608	
2.33879E-05	41.67560577	
2.36217E-05	40.00639343	
2.38579E-05	38.48630524	
2.40965E-05	37.10255432	
2.43375E-05	35.84825897	
2.45809E-05	34.72338104	
2.48267E-05	33.73738098	
2.50750E-05	32.91561127	
2.53257E-05	32.30085754	
2.54524E-05	32.10125732	
2.55790E-05	32.01172638	
2.57069E-05	32.06281281	
2.58348E-05	32.3078537	
2.59640E-05	32.8335495	
2.60286E-05	33.24669266	
2.60931E-05	33.79949951	
2.61500E-05	34.43392563	
2.62069E-05	35.24490738	
2.62638E-05	36.28396225	
2.63206E-05	37.62456512	
2.63647E-05	38.93819809	
2.64088E-05	40.56822586	
2.64529E-05	42.61481476	
2.64970E-05	45.22366714	
2.65312E-05	47.77000046	
2.65654E-05	50.93508911	
2.65996E-05	54.94435883	
2.66338E-05	60.14715195	
2.66603E-05	65.36238098	
2.66869E-05	72.06504059	
2.67002E-05	76.1708374	
2.67135E-05	80.92385864	
2.67267E-05	86.46567535	
2.67400E-05	92.97851563	
2.67493E-05	98.20883942	
2.67671E-05	110.2538223	
2.67841E-05	124.7075806	
2.67922E-05	132.9804993	
2.68080E-05	151.7875519	
2.68156E-05	162.3927765	
2.68301E-05	186.134613	
2.68440E-05	213.5270386	
2.68538E-05	235.973465	
2.68636E-05	261.3402405	
2.68724E-05	286.769104	
2.68811E-05	314.8917847	
2.68987E-05	379.7836609	
2.69144E-05	448.0615234	
2.69290E-05	520.2840576	
2.69426E-05	594.5386963	
2.69671E-05	742.5952759	
2.70212E-05	1087.885864	
2.70464E-05	1221.067383	
2.70651E-05	1294.435547	
2.70894E-05	1345.608154	
2.71000E-05	1350.776245	
2.71104E-05	1345.319946	
2.71185E-05	1333.985962	
2.71372E-05	1285.347534	
2.71513E-05	1229.984985	
2.71656E-05	1159.519531	
2.71956E-05	982.1487427	
2.72254E-05	790.0698242	
2.72617E-05	571.0217285	
2.72756E-05	497.5814514	
2.72905E-05	426.8818054	
2.73014E-05	381.0136719	
2.73122E-05	339.7084961	
2.73214E-05	308.1178589	
2.73306E-05	279.5823059	
2.73398E-05	253.9106293	
2.73490E-05	230.9488831	
2.73626E-05	201.5809479	
2.73768E-05	175.8944092	
2.73841E-05	164.3115234	
2.73995E-05	143.6565247	
2.74156E-05	126.1344604	
2.74240E-05	118.4375534	
2.74413E-05	104.9456406	
2.74503E-05	99.0639267	
2.74691E-05	88.78528595	
2.74788E-05	84.31367493	
2.74990E-05	76.47734833	
2.75203E-05	69.89407349	
2.75314E-05	66.99324036	
2.75543E-05	61.85179901	
2.75876E-05	55.96731186	
2.76210E-05	51.41675186	
2.76543E-05	47.80028915	
2.76877E-05	44.86544418	
2.77306E-05	41.82459641	
2.77736E-05	39.40249634	
2.78166E-05	37.4408493	
2.78596E-05	35.8311882	
2.79150E-05	34.15335083	
2.79704E-05	32.82025909	
2.80259E-05	31.75431061	
2.80813E-05	30.90216064	
2.81515E-05	30.07143593	
2.82217E-05	29.47194672	
2.82919E-05	29.07288551	
2.83621E-05	28.85892868	
2.84200E-05	28.81899071	
2.84911E-05	28.94411087	
2.85621E-05	29.27753448	
2.86332E-05	29.85041237	
2.87042E-05	30.71285629	
2.87627E-05	31.69324303	
2.88212E-05	32.98262787	
2.88797E-05	34.6669693	
2.89382E-05	36.87097168	
2.89835E-05	39.0500946	
2.90288E-05	41.77185822	
2.90742E-05	45.21036911	
2.91195E-05	49.62055206	
2.91546E-05	53.94591904	
2.91898E-05	59.35361481	
2.92250E-05	66.24681854	
2.92601E-05	75.26638794	
2.92874E-05	84.39458466	
2.93147E-05	96.25148773	
2.93284E-05	103.5837631	
2.93420E-05	112.1331635	
2.93556E-05	122.1775894	
2.93693E-05	134.079422	
2.93881E-05	154.2922211	
2.93971E-05	166.0289307	
2.94145E-05	193.0886536	
2.94229E-05	208.6417236	
2.94391E-05	244.1517792	
2.94468E-05	264.3152161	
2.94618E-05	309.7731018	
2.94761E-05	362.2129822	
2.94924E-05	435.2579041	
2.95087E-05	524.201355	
2.95204E-05	598.6170044	
2.95321E-05	682.6603394	
2.95482E-05	814.6833496	
2.95631E-05	954.2808228	
2.95770E-05	1097.901245	
2.95900E-05	1242.175781	
2.96238E-05	1650.975464	
2.96596E-05	2081.276611	
2.96748E-05	2242.087646	
2.96897E-05	2377.106689	
2.97159E-05	2541.972168	
2.97400E-05	2595.31958	
2.97499E-05	2587.770508	
2.97705E-05	2517.645996	
2.97906E-05	2385.298584	
2.98044E-05	2262.994385	
2.98303E-05	1985.535645	
2.98927E-05	1237.732178	
2.99058E-05	1094.452637	
2.99199E-05	951.8045654	
2.99351E-05	813.7086792	
2.99514E-05	683.8023682	
2.99639E-05	597.0029297	
2.99764E-05	520.9016724	
2.99889E-05	454.6522827	
3.00013E-05	397.5258789	
3.00155E-05	342.7090149	
3.00303E-05	294.8261108	
3.00380E-05	273.4633789	
3.00540E-05	235.5347443	
3.00623E-05	218.8189392	
3.00796E-05	189.5403748	
3.00886E-05	176.7939301	
3.01071E-05	154.6360168	
3.01168E-05	145.0199432	
3.01369E-05	128.3097076	
3.01580E-05	114.4187164	
3.01690E-05	108.3739395	
3.01847E-05	100.770134	
3.02005E-05	94.22395325	
3.02320E-05	83.55271912	
3.02634E-05	75.24233246	
3.02949E-05	68.61299896	
3.03355E-05	61.84910583	
3.03761E-05	56.55078506	
3.04167E-05	52.33400726	
3.04573E-05	48.94279099	
3.05096E-05	45.50808334	
3.05620E-05	42.89686966	
3.06143E-05	40.93888474	
3.06667E-05	39.52238846	
3.07300E-05	38.4288063	
3.07933E-05	37.9472847	
3.08567E-05	38.05118942	
3.09200E-05	38.7545929	
3.09867E-05	40.20043182	
3.10533E-05	42.48373795	
3.10866E-05	43.99556351	
3.11200E-05	45.79594803	
3.11533E-05	47.92555618	
3.11866E-05	50.43476868	
3.12125E-05	52.68102264	
3.12383E-05	55.22766876	
3.12641E-05	58.11587524	
3.12900E-05	61.39404297	
3.13158E-05	65.12133789	
3.13416E-05	69.36786652	
3.13675E-05	74.22135925	
3.13933E-05	79.78593445	
3.14134E-05	84.67606354	
3.14334E-05	90.14366913	
3.14535E-05	96.28253937	
3.14735E-05	103.1993637	
3.14936E-05	111.0274811	
3.15136E-05	119.925499	
3.15337E-05	130.0973358	
3.15537E-05	141.7901001	
3.15693E-05	152.1266479	
3.15848E-05	163.7772522	
3.16004E-05	176.9784698	
3.16160E-05	192.014801	
3.16315E-05	209.2825928	
3.16471E-05	229.2232513	
3.16627E-05	252.4414825	
3.16782E-05	279.736084	
3.16944E-05	313.386261	
3.17105E-05	353.8110962	
3.17255E-05	398.8126526	
3.17405E-05	452.7858582	
3.17543E-05	512.5040283	
3.17682E-05	583.6550293	
3.17810E-05	661.7210083	
3.17939E-05	753.447937	
3.18058E-05	852.5457153	
3.18177E-05	967.1149902	
3.18287E-05	1088.677002	
3.18398E-05	1226.612061	
3.18497E-05	1365.289551	
3.18595E-05	1519.293701	
3.18694E-05	1689.39978	
3.18793E-05	1876.453491	
3.18970E-05	2254.095215	
3.19052E-05	2448.806152	
3.19210E-05	2857.38916	
3.19358E-05	3274.416504	
3.19562E-05	3897.25293	
3.19913E-05	5027.847168	
3.20207E-05	5932.450195	
3.20459E-05	6578.910645	
3.20642E-05	6931.583984	
3.20877E-05	7202.913574	
3.21056E-05	7255.145508	
3.21167E-05	7218.753906	
3.21419E-05	6948.075684	
3.21590E-05	6631.771484	
3.21856E-05	5973.393066	
3.22053E-05	5394.819336	
3.22397E-05	4323.937012	
3.22527E-05	3923.969238	
3.22816E-05	3098.409912	
3.22976E-05	2689.644287	
3.23149E-05	2297.091797	
3.23335E-05	1930.204956	
3.23439E-05	1750.387695	
3.23543E-05	1587.520996	
3.23646E-05	1440.728638	
3.23750E-05	1308.989624	
3.23867E-05	1177.902344	
3.23983E-05	1062.810425	
3.24108E-05	954.5179443	
3.24234E-05	860.7973022	
3.24369E-05	773.8175659	
3.24504E-05	699.4266968	
3.24650E-05	631.1105347	
3.24796E-05	573.1419678	
3.24954E-05	520.0322876	
3.25111E-05	475.0639954	
3.25282E-05	433.8085327	
3.25452E-05	398.7052612	
3.25636E-05	366.3026428	
3.25820E-05	338.5447083	
3.26019E-05	312.7120361	
3.26217E-05	290.3698425	
3.26432E-05	269.3674622	
3.26647E-05	251.059021	
3.27061E-05	221.6766357	
3.27475E-05	198.1751251	
3.27889E-05	178.9943848	
3.28303E-05	163.0765686	
3.28837E-05	146.1997528	
3.29371E-05	132.4336395	
3.29905E-05	121.0154724	
3.30439E-05	111.4145584	
3.31128E-05	101.0953979	
3.31816E-05	92.56819153	
3.32505E-05	85.41635895	
3.33194E-05	79.34234619	
3.34027E-05	73.1244278	
3.34860E-05	67.87534332	
3.35693E-05	63.38788986	
3.36526E-05	59.51080322	
3.37367E-05	56.09704971	
3.38208E-05	53.09754181	
3.39050E-05	50.44470978	
3.39891E-05	48.08388519	
3.41591E-05	43.99713898	
3.43290E-05	40.60239792	
3.45007E-05	37.71346664	
3.46723E-05	35.23914337	
3.48457E-05	33.06636429	
3.50190E-05	31.15191841	
3.51941E-05	29.42792892	
3.53693E-05	27.87560844	
3.55461E-05	26.4518013	
3.57229E-05	25.14985847	
3.59000E-05	23.95153618	
3.60795E-05	22.83243942	
3.62590E-05	21.80245018	
3.64403E-05	20.85048485	
3.66216E-05	19.99072266	
3.68047E-05	19.2267971	
3.69878E-05	18.58867264	
3.71728E-05	18.10745239	
3.73577E-05	17.84721756	
3.75445E-05	17.89078903	
3.76379E-05	18.07410049	
3.77313E-05	18.40543175	
3.78256E-05	18.9259491	
3.79200E-05	19.67904472	
3.80143E-05	20.72585487	
3.81086E-05	22.15130234	
3.81536E-05	22.99702835	
3.81985E-05	23.9725666	
3.82434E-05	25.09758186	
3.82659E-05	25.72330093	
3.82884E-05	26.39487648	
3.83108E-05	27.11655617	
3.83333E-05	27.89206505	
3.83558E-05	28.72504616	
3.83782E-05	29.62023735	
3.84007E-05	30.58281708	
3.84232E-05	31.61836243	
3.84456E-05	32.73297882	
3.84681E-05	33.9328537	
3.84855E-05	34.92729568	
3.85029E-05	35.98117447	
3.85204E-05	37.09955215	
3.85378E-05	38.28593063	
3.85552E-05	39.54586029	
3.85726E-05	40.88428879	
3.85900E-05	42.30696106	
3.86074E-05	43.81923294	
3.86249E-05	45.42970276	
3.86423E-05	47.14447021	
3.86597E-05	48.97328186	
3.86771E-05	50.9241333	
3.86945E-05	53.00753403	
3.87119E-05	55.23180771	
3.87294E-05	57.61283112	
3.87468E-05	60.16274643	
3.87738E-05	64.48448944	
3.88008E-05	69.31269836	
3.88278E-05	74.71661377	
3.88549E-05	80.78895569	
3.88819E-05	87.63554382	
3.89089E-05	95.38554382	
3.89359E-05	104.1964798	
3.89630E-05	114.2640228	
3.89839E-05	123.0932617	
3.90049E-05	132.9652405	
3.90259E-05	144.0361633	
3.90468E-05	156.5119934	
3.90678E-05	170.6433105	
3.90888E-05	186.7295074	
3.91098E-05	205.1533966	
3.91307E-05	226.4163361	
3.91525E-05	252.1554565	
3.91743E-05	282.5254211	
3.91944E-05	315.8097229	
3.92146E-05	355.3536987	
3.92333E-05	398.9534302	
3.92520E-05	450.9581909	
3.92693E-05	508.5150146	
3.92866E-05	577.1155396	
3.93026E-05	652.6918335	
3.93186E-05	742.2734985	
3.93334E-05	840.2216797	
3.93483E-05	955.1239014	
3.93621E-05	1079.237671	
3.93759E-05	1222.602661	
3.93887E-05	1375.102417	
3.94014E-05	1548.081177	
3.94129E-05	1722.541016	
3.94244E-05	1916.408081	
3.94358E-05	2131.120117	
3.94473E-05	2367.584473	
3.94678E-05	2846.75293	
3.94773E-05	3094.987061	
3.94958E-05	3618.291748	
3.95214E-05	4429.213379	
3.95443E-05	5220.241699	
3.95782E-05	6442.938477	
3.96135E-05	7642.851563	
3.96353E-05	8271.922852	
3.96579E-05	8783.003906	
3.96840E-05	9148.84668	
3.97000E-05	9238.294922	
3.97214E-05	9192.041016	
3.97535E-05	8779.394531	
3.97754E-05	8294.880859	
3.98093E-05	7303.595215	
3.98784E-05	4963.191406	
3.98950E-05	4430.453125	
3.99128E-05	3897.837402	
3.99319E-05	3378.96875	
3.99525E-05	2884.971436	
3.99753E-05	2413.866699	
